Mole fraction of liquid	Heat per mole [J]	Temperature [K]	Apparent heat capacity per mole [J/K]	Latent heat per mole [J]
1.00000	1.13127E5	2770.11649	49.59143	0.00000
0.99999	1.13122E5	2770.02086	49.59143	-0.43444
0.99735	1.12991E5	2769.02086	130.83756	-77.56904
0.99472	1.12861E5	2768.02086	130.47717	-154.37707
0.99210	1.12731E5	2767.02086	130.11861	-230.86023
0.98949	1.12601E5	2766.02086	129.76186	-307.02022
0.98689	1.12472E5	2765.02086	129.40690	-382.85872
0.98430	1.12343E5	2764.02086	129.05374	-458.37740
0.98172	1.12214E5	2763.02086	128.70235	-533.57794
0.97915	1.12086E5	2762.02086	128.35273	-608.46198
0.97659	1.11958E5	2761.02086	128.00486	-683.03117
0.97403	1.11830E5	2760.02086	127.65874	-757.28715
0.97149	1.11703E5	2759.02086	127.31435	-831.23153
0.96895	1.11576E5	2758.02086	126.97169	-904.86593
0.96642	1.11449E5	2757.02086	126.63073	-978.19195
0.96390	1.11323E5	2756.02086	126.29148	-1051.21120
0.96140	1.11197E5	2755.02086	125.95392	-1123.92524
0.95889	1.11071E5	2754.02086	125.61805	-1196.33566
0.95640	1.10946E5	2753.02086	125.28384	-1268.44403
0.95392	1.10821E5	2752.02086	124.95130	-1340.25189
0.95144	1.10696E5	2751.02086	124.62040	-1411.76079
0.94898	1.10572E5	2750.02086	124.29115	-1482.97228
0.94652	1.10448E5	2749.02086	123.96353	-1553.88787
0.94407	1.10324E5	2748.02086	123.63753	-1624.50908
0.94163	1.10201E5	2747.02086	123.31314	-1694.83743
0.93920	1.10078E5	2746.02086	122.99035	-1764.87440
0.93678	1.09955E5	2745.02086	122.66915	-1834.62150
0.93436	1.09833E5	2744.02086	122.34954	-1904.08020
0.93196	1.09711E5	2743.02086	122.03150	-1973.25198
0.92956	1.09589E5	2742.02086	121.71502	-2042.13829
0.92717	1.09468E5	2741.02086	121.40009	-2110.74060
0.92479	1.09347E5	2740.02086	121.08671	-2179.06034
0.92241	1.09226E5	2739.02086	120.77487	-2247.09896
0.92005	1.09106E5	2738.02086	120.46454	-2314.85789
0.91769	1.08985E5	2737.02086	120.15574	-2382.33853
0.91534	1.08866E5	2736.02086	119.84844	-2449.54231
0.91300	1.08746E5	2735.02086	119.54265	-2516.47063
0.91067	1.08627E5	2734.02086	119.23834	-2583.12487
0.90834	1.08508E5	2733.02086	118.93551	-2649.50644
0.90602	1.08389E5	2732.02086	118.63416	-2715.61669
0.90371	1.08271E5	2731.02086	118.33426	-2781.45701
0.90141	1.08153E5	2730.02086	118.03582	-2847.02876
0.89912	1.08035E5	2729.02086	117.73883	-2912.33328
0.89683	1.07918E5	2728.02086	117.44327	-2977.37192
0.89455	1.07801E5	2727.02086	117.14915	-3042.14602
0.89228	1.07684E5	2726.02086	116.85644	-3106.65691
0.89002	1.07567E5	2725.02086	116.56514	-3170.90591
0.88777	1.07451E5	2724.02086	116.27525	-3234.89433
0.88552	1.07335E5	2723.02086	115.98675	-3298.62348
0.88328	1.07219E5	2722.02086	115.69964	-3362.09466
0.88105	1.07104E5	2721.02086	115.41391	-3425.30915
0.87882	1.06989E5	2720.02086	115.12954	-3488.26823
0.87660	1.06874E5	2719.02086	114.84654	-3550.97319
0.87439	1.06759E5	2718.02086	114.56490	-3613.42529
0.87219	1.06645E5	2717.02086	114.28460	-3675.62578
0.87000	1.06531E5	2716.02086	114.00564	-3737.57593
0.86781	1.06417E5	2715.02086	113.72800	-3799.27697
0.86563	1.06304E5	2714.02086	113.45169	-3860.73015
0.86345	1.06191E5	2713.02086	113.17670	-3921.93669
0.86129	1.06078E5	2712.02086	112.90301	-3982.89782
0.85913	1.05965E5	2711.02086	112.63063	-4043.61475
0.85698	1.05853E5	2710.02086	112.35953	-4104.08870
0.85483	1.05741E5	2709.02086	112.08972	-4164.32085
0.85270	1.05629E5	2708.02086	111.82119	-4224.31242
0.85057	1.05517E5	2707.02086	111.55392	-4284.06458
0.84844	1.05406E5	2706.02086	111.28792	-4343.57852
0.84633	1.05295E5	2705.02086	111.02317	-4402.85541
0.84422	1.05184E5	2704.02086	110.75967	-4461.89642
0.84211	1.05074E5	2703.02086	110.49741	-4520.70270
0.84002	1.04963E5	2702.02086	110.23638	-4579.27542
0.83793	1.04853E5	2701.02086	109.97658	-4637.61572
0.83585	1.04744E5	2700.02086	109.71799	-4695.72474
0.83377	1.04634E5	2699.02086	109.46062	-4753.60361
0.83170	1.04525E5	2698.02086	109.20446	-4811.25346
0.82964	1.04416E5	2697.02086	108.94949	-4868.67540
0.82759	1.04307E5	2696.02086	108.69571	-4925.87057
0.82554	1.04199E5	2695.02086	108.44311	-4982.84005
0.82350	1.04091E5	2694.02086	108.19170	-5039.58496
0.82146	1.03983E5	2693.02086	107.94145	-5096.10639
0.81944	1.03875E5	2692.02086	107.69237	-5152.40543
0.81742	1.03768E5	2691.02086	107.44444	-5208.48315
0.81540	1.03660E5	2690.02086	107.19766	-5264.34064
0.81339	1.03554E5	2689.02086	106.95203	-5319.97897
0.81139	1.03447E5	2688.02086	106.70754	-5375.39919
0.80939	1.03340E5	2687.02086	106.46417	-5430.60237
0.80741	1.03234E5	2686.02086	106.22193	-5485.58956
0.80542	1.03128E5	2685.02086	105.98081	-5540.36181
0.80345	1.03022E5	2684.02086	105.74080	-5594.92015
0.80148	1.02917E5	2683.02086	105.50189	-5649.26562
0.79951	1.02812E5	2682.02086	105.26408	-5703.39924
0.79756	1.02707E5	2681.02086	105.02737	-5757.32205
0.79560	1.02602E5	2680.02086	104.79174	-5811.03505
0.79366	1.02497E5	2679.02086	104.55719	-5864.53925
0.79172	1.02393E5	2678.02086	104.32372	-5917.83566
0.78979	1.02289E5	2677.02086	104.09131	-5970.92528
0.78786	1.02185E5	2676.02086	103.85996	-6023.80911
0.78594	1.02081E5	2675.02086	103.62968	-6076.48813
0.78403	1.01978E5	2674.02086	103.40044	-6128.96331
0.78212	1.01875E5	2673.02086	103.17224	-6181.23565
0.78022	1.01772E5	2672.02086	102.94508	-6233.30611
0.77832	1.01669E5	2671.02086	102.71896	-6285.17566
0.77643	1.01567E5	2670.02086	102.49386	-6336.84525
0.77455	1.01464E5	2669.02086	102.26978	-6388.31584
0.77267	1.01362E5	2668.02086	102.04672	-6439.58839
0.77080	1.01260E5	2667.02086	101.82467	-6490.66383
0.76893	1.01159E5	2666.02086	101.60362	-6541.54310
0.76707	1.01058E5	2665.02086	101.38357	-6592.22715
0.76522	1.00956E5	2664.02086	101.16451	-6642.71689
0.76337	1.00855E5	2663.02086	100.94643	-6693.01325
0.76153	1.00755E5	2662.02086	100.72934	-6743.11714
0.75969	1.00654E5	2661.02086	100.51323	-6793.02949
0.75786	1.00554E5	2660.02086	100.29808	-6842.75120
0.75603	1.00454E5	2659.02086	100.08390	-6892.28317
0.75421	1.00354E5	2658.02086	99.87068	-6941.62630
0.75240	1.00254E5	2657.02086	99.65842	-6990.78148
0.75059	1.00155E5	2656.02086	99.44710	-7039.74960
0.74879	1.00056E5	2655.02086	99.23672	-7088.53155
0.74699	99956.52954	2654.02086	99.02729	-7137.12819
0.74520	99857.71076	2653.02086	98.81879	-7185.54042
0.74341	99759.09954	2652.02086	98.61121	-7233.76908
0.74163	99660.69498	2651.02086	98.40456	-7281.81505
0.73986	99562.49615	2650.02086	98.19883	-7329.67919
0.73809	99464.50214	2649.02086	97.99401	-7377.36235
0.73632	99366.71205	2648.02086	97.79010	-7424.86538
0.73456	99269.12496	2647.02086	97.58709	-7472.18912
0.73281	99171.73999	2646.02086	97.38497	-7519.33441
0.73106	99074.55623	2645.02086	97.18375	-7566.30210
0.72932	98977.57281	2644.02086	96.98342	-7613.09300
0.72758	98880.78884	2643.02086	96.78398	-7659.70796
0.72585	98784.20343	2642.02086	96.58541	-7706.14778
0.72412	98687.81572	2641.02086	96.38771	-7752.41329
0.72240	98591.62484	2640.02086	96.19088	-7798.50530
0.72069	98495.62993	2639.02086	95.99492	-7844.42461
0.71897	98399.83011	2638.02086	95.79981	-7890.17204
0.71727	98304.22455	2637.02086	95.60556	-7935.74838
0.71557	98208.81239	2636.02086	95.41216	-7981.15442
0.71387	98113.59279	2635.02086	95.21960	-8026.39096
0.71218	98018.56490	2634.02086	95.02789	-8071.45879
0.71050	97923.72789	2633.02086	94.83701	-8116.35869
0.70882	97829.08093	2632.02086	94.64696	-8161.09143
0.70714	97734.62319	2631.02086	94.45774	-8205.65779
0.70547	97640.35385	2630.02086	94.26934	-8250.05854
0.70381	97546.27209	2629.02086	94.08176	-8294.29444
0.70215	97452.37709	2628.02086	93.89499	-8338.36626
0.70049	97358.66806	2627.02086	93.70904	-8382.27475
0.69884	97265.14417	2626.02086	93.52388	-8426.02067
0.69720	97171.80464	2625.02086	93.33953	-8469.60477
0.69556	97078.64867	2624.02086	93.15597	-8513.02779
0.69392	96985.67546	2623.02086	92.97321	-8556.29047
0.69229	96892.88423	2622.02086	92.79123	-8599.39355
0.69066	96800.27419	2621.02086	92.61004	-8642.33777
0.68904	96707.84457	2620.02086	92.42962	-8685.12385
0.68743	96615.59459	2619.02086	92.24998	-8727.75252
0.68582	96523.52347	2618.02086	92.07111	-8770.22450
0.68421	96431.63047	2617.02086	91.89301	-8812.54050
0.68261	96339.91480	2616.02086	91.71567	-8854.70125
0.68101	96248.37571	2615.02086	91.53909	-8896.70745
0.67942	96157.01245	2614.02086	91.36326	-8938.55981
0.67783	96065.82427	2613.02086	91.18818	-8980.25903
0.67625	95974.81042	2612.02086	91.01385	-9021.80581
0.67467	95883.97016	2611.02086	90.84026	-9063.20085
0.67310	95793.30274	2610.02086	90.66741	-9104.44483
0.67153	95702.80745	2609.02086	90.49530	-9145.53845
0.66996	95612.48354	2608.02086	90.32391	-9186.48239
0.66840	95522.33029	2607.02086	90.15325	-9227.27733
0.66685	95432.34697	2606.02086	89.98331	-9267.92394
0.66530	95342.53288	2605.02086	89.81410	-9308.42291
0.66375	95252.88728	2604.02086	89.64559	-9348.77489
0.66221	95163.40948	2603.02086	89.47780	-9388.98056
0.66067	95074.09876	2602.02086	89.31072	-9429.04058
0.65914	94984.95442	2601.02086	89.14434	-9468.95561
0.65761	94895.97575	2600.02086	88.97866	-9508.72630
0.65609	94807.16207	2599.02086	88.81368	-9548.35331
0.65457	94718.51269	2598.02086	88.64939	-9587.83729
0.65305	94630.02690	2597.02086	88.48579	-9627.17887
0.65154	94541.70403	2596.02086	88.32287	-9666.37872
0.65004	94453.54339	2595.02086	88.16064	-9705.43745
0.64854	94365.54430	2594.02086	87.99908	-9744.35572
0.64704	94277.70610	2593.02086	87.83820	-9783.13414
0.64555	94190.02811	2592.02086	87.67799	-9821.77335
0.64406	94102.50966	2591.02086	87.51845	-9860.27399
0.64257	94015.15009	2590.02086	87.35957	-9898.63665
0.64109	93927.94873	2589.02086	87.20135	-9936.86198
0.63961	93840.90494	2588.02086	87.04379	-9974.95058
0.63814	93754.01805	2587.02086	86.88689	-10012.90307
0.63668	93667.28742	2586.02086	86.73063	-10050.72005
0.63521	93580.71239	2585.02086	86.57502	-10088.40213
0.63375	93494.29234	2584.02086	86.42006	-10125.94992
0.63230	93408.02660	2583.02086	86.26573	-10163.36402
0.63085	93321.91456	2582.02086	86.11205	-10200.64502
0.62940	93235.95557	2581.02086	85.95899	-10237.79352
0.62796	93150.14900	2580.02086	85.80657	-10274.81011
0.62652	93064.49423	2579.02086	85.65477	-10311.69537
0.62508	92978.99063	2578.02086	85.50360	-10348.44990
0.62365	92893.63759	2577.02086	85.35304	-10385.07427
0.62222	92808.43448	2576.02086	85.20311	-10421.56906
0.62080	92723.38069	2575.02086	85.05379	-10457.93485
0.61938	92638.47562	2574.02086	84.90508	-10494.17222
0.61797	92553.71864	2573.02086	84.75697	-10530.28172
0.61656	92469.10916	2572.02086	84.60948	-10566.26394
0.61515	92384.64658	2571.02086	84.46258	-10602.11943
0.61375	92300.33030	2570.02086	84.31628	-10637.84875
0.61235	92216.15972	2569.02086	84.17058	-10673.45247
0.61095	92132.13424	2568.02086	84.02547	-10708.93114
0.60956	92048.25329	2567.02086	83.88095	-10744.28531
0.60818	91964.51627	2566.02086	83.73702	-10779.51554
0.60679	91880.92261	2565.02086	83.59367	-10814.62237
0.60541	91797.47171	2564.02086	83.45090	-10849.60634
0.60404	91714.16301	2563.02086	83.30870	-10884.46800
0.60266	91630.99592	2562.02086	83.16709	-10919.20789
0.60130	91547.96988	2561.02086	83.02604	-10953.82653
0.59993	91465.08432	2560.02086	82.88556	-10988.32448
0.59857	91382.33867	2559.02086	82.74565	-11022.70225
0.59721	91299.73238	2558.02086	82.60630	-11056.96038
0.59586	91217.26487	2557.02086	82.46751	-11091.09940
0.59451	91134.93559	2556.02086	82.32927	-11125.11981
0.59317	91052.74400	2555.02086	82.19160	-11159.02216
0.59182	90970.68953	2554.02086	82.05447	-11192.80694
0.59048	90888.77164	2553.02086	81.91789	-11226.47469
0.58915	90806.98978	2552.02086	81.78186	-11260.02590
0.58782	90725.34342	2551.02086	81.64637	-11293.46110
0.58649	90643.83200	2550.02086	81.51142	-11326.78079
0.58517	90562.45499	2549.02086	81.37701	-11359.98547
0.58385	90481.21186	2548.02086	81.24313	-11393.07565
0.58253	90400.10208	2547.02086	81.10978	-11426.05182
0.58122	90319.12511	2546.02086	80.97697	-11458.91449
0.57991	90238.28043	2545.02086	80.84468	-11491.66415
0.57860	90157.56751	2544.02086	80.71292	-11524.30130
0.57730	90076.98583	2543.02086	80.58168	-11556.82641
0.57600	89996.53488	2542.02086	80.45095	-11589.23999
0.57470	89916.21414	2541.02086	80.32075	-11621.54251
0.57341	89836.02308	2540.02086	80.19105	-11653.73446
0.57212	89755.96121	2539.02086	80.06187	-11685.81632
0.57084	89676.02802	2538.02086	79.93320	-11717.78856
0.56956	89596.22299	2537.02086	79.80503	-11749.65168
0.56828	89516.54562	2536.02086	79.67737	-11781.40612
0.56700	89436.99542	2535.02086	79.55020	-11813.05238
0.56573	89357.57188	2534.02086	79.42354	-11844.59092
0.56446	89278.27450	2533.02086	79.29737	-11876.02219
0.56320	89199.10281	2532.02086	79.17170	-11907.34668
0.56194	89120.05629	2531.02086	79.04651	-11938.56484
0.56068	89041.13447	2530.02086	78.92182	-11969.67713
0.55943	88962.33686	2529.02086	78.79761	-12000.68400
0.55817	88883.66297	2528.02086	78.67389	-12031.58592
0.55693	88805.11232	2527.02086	78.55065	-12062.38334
0.55568	88726.68444	2526.02086	78.42788	-12093.07670
0.55444	88648.37884	2525.02086	78.30560	-12123.66646
0.55320	88570.19506	2524.02086	78.18378	-12154.15306
0.55197	88492.13261	2523.02086	78.06244	-12184.53695
0.55074	88414.19104	2522.02086	77.94157	-12214.81857
0.54951	88336.36987	2521.02086	77.82117	-12244.99836
0.54828	88258.66864	2520.02086	77.70123	-12275.07676
0.54706	88181.08688	2519.02086	77.58176	-12305.05420
0.54584	88103.62413	2518.02086	77.46274	-12334.93112
0.54463	88026.27994	2517.02086	77.34419	-12364.70795
0.54341	87949.05386	2516.02086	77.22609	-12394.38512
0.54220	87871.94541	2515.02086	77.10844	-12423.96305
0.54100	87794.95417	2514.02086	76.99125	-12453.44218
0.53979	87718.07966	2513.02086	76.87450	-12482.82292
0.53859	87641.32146	2512.02086	76.75821	-12512.10570
0.53740	87564.67911	2511.02086	76.64235	-12541.29093
0.53620	87488.15216	2510.02086	76.52694	-12570.37904
0.53501	87411.74019	2509.02086	76.41197	-12599.37044
0.53383	87335.44275	2508.02086	76.29744	-12628.26554
0.53264	87259.25940	2507.02086	76.18335	-12657.06476
0.53146	87183.18971	2506.02086	76.06969	-12685.76850
0.53028	87107.23325	2505.02086	75.95646	-12714.37717
0.52911	87031.38959	2504.02086	75.84366	-12742.89118
0.52793	86955.65829	2503.02086	75.73129	-12771.31093
0.52676	86880.03894	2502.02086	75.61935	-12799.63682
0.52560	86804.53111	2501.02086	75.50783	-12827.86926
0.52443	86729.13438	2500.02086	75.39673	-12856.00864
0.52327	86653.84832	2499.02086	75.28606	-12884.05536
0.52212	86578.67253	2498.02086	75.17579	-12912.00980
0.52096	86503.60658	2497.02086	75.06595	-12939.87238
0.51981	86428.65006	2496.02086	74.95652	-12967.64346
0.51866	86353.80256	2495.02086	74.84750	-12995.32345
0.51751	86279.06366	2494.02086	74.73889	-13022.91274
0.51637	86204.43297	2493.02086	74.63069	-13050.41169
0.51523	86129.91008	2492.02086	74.52290	-13077.82071
0.51409	86055.49457	2491.02086	74.41551	-13105.14017
0.51296	85981.18605	2490.02086	74.30852	-13132.37045
0.51183	85906.98413	2489.02086	74.20193	-13159.51193
0.51070	85832.88839	2488.02086	74.09574	-13186.56498
0.50957	85758.89845	2487.02086	73.98994	-13213.52998
0.50845	85685.01391	2486.02086	73.88454	-13240.40731
0.50733	85611.23437	2485.02086	73.77953	-13267.19733
0.50621	85537.55945	2484.02086	73.67492	-13293.90041
0.50510	85463.98876	2483.02086	73.57069	-13320.51693
0.50399	85390.52191	2482.02086	73.46685	-13347.04724
0.50288	85317.15852	2481.02086	73.36339	-13373.49171
0.50177	85243.89820	2480.02086	73.26032	-13399.85071
0.50067	85170.74057	2479.02086	73.15763	-13426.12459
0.49956	85097.68525	2478.02086	73.05532	-13452.31372
0.49847	85024.73186	2477.02086	72.95339	-13478.41844
0.49737	84951.88004	2476.02086	72.85183	-13504.43913
0.49628	84879.12939	2475.02086	72.75065	-13530.37613
0.49519	84806.47955	2474.02086	72.64984	-13556.22979
0.49410	84733.93016	2473.02086	72.54940	-13582.00047
0.49302	84661.48083	2472.02086	72.44933	-13607.68851
0.49193	84589.13121	2471.02086	72.34962	-13633.29427
0.49085	84516.88092	2470.02086	72.25029	-13658.81809
0.48978	84444.72961	2469.02086	72.15131	-13684.26031
0.48870	84372.67690	2468.02086	72.05270	-13709.62128
0.48763	84300.72245	2467.02086	71.95445	-13734.90135
0.48656	84228.86589	2466.02086	71.85656	-13760.10084
0.48549	84157.10686	2465.02086	71.75903	-13785.22010
0.48443	84085.44502	2464.02086	71.66185	-13810.25947
0.48337	84013.87999	2463.02086	71.56502	-13835.21927
0.48231	83942.41144	2462.02086	71.46855	-13860.09986
0.48125	83871.03901	2461.02086	71.37243	-13884.90155
0.48020	83799.76235	2460.02086	71.27666	-13909.62468
0.47915	83728.58112	2459.02086	71.18123	-13934.26959
0.47810	83657.49497	2458.02086	71.08615	-13958.83658
0.47705	83586.50355	2457.02086	70.99142	-13983.32601
0.47601	83515.60653	2456.02086	70.89702	-14007.73818
0.47497	83444.80356	2455.02086	70.80297	-14032.07342
0.47393	83374.09430	2454.02086	70.70926	-14056.33207
0.47289	83303.47841	2453.02086	70.61589	-14080.51442
0.47186	83232.95556	2452.02086	70.52285	-14104.62081
0.47083	83162.52542	2451.02086	70.43014	-14128.65156
0.46980	83092.18765	2450.02086	70.33777	-14152.60698
0.46877	83021.94191	2449.02086	70.24574	-14176.48738
0.46775	82951.78788	2448.02086	70.15403	-14200.29309
0.46673	82881.72523	2447.02086	70.06265	-14224.02440
0.46571	82811.75364	2446.02086	69.97160	-14247.68164
0.46469	82741.87277	2445.02086	69.88087	-14271.26511
0.46368	82672.08230	2444.02086	69.79047	-14294.77513
0.46266	82602.38191	2443.02086	69.70039	-14318.21199
0.46165	82532.77128	2442.02086	69.61063	-14341.57601
0.46065	82463.25009	2441.02086	69.52119	-14364.86749
0.45964	82393.81801	2440.02086	69.43207	-14388.08673
0.45864	82324.47474	2439.02086	69.34327	-14411.23404
0.45764	82255.21996	2438.02086	69.25478	-14434.30971
0.45664	82186.05335	2437.02086	69.16661	-14457.31404
0.45564	82116.97460	2436.02086	69.07875	-14480.24733
0.45465	82047.98340	2435.02086	68.99120	-14503.10989
0.45366	81979.07944	2434.02086	68.90396	-14525.90200
0.45267	81910.26241	2433.02086	68.81703	-14548.62395
0.45168	81841.53200	2432.02086	68.73041	-14571.27605
0.45070	81772.88791	2431.02086	68.64409	-14593.85858
0.44972	81704.32984	2430.02086	68.55808	-14616.37183
0.44874	81635.85747	2429.02086	68.47237	-14638.81609
0.44776	81567.47051	2428.02086	68.38696	-14661.19165
0.44678	81499.16866	2427.02086	68.30185	-14683.49880
0.44581	81430.95163	2426.02086	68.21704	-14705.73782
0.44484	81362.81910	2425.02086	68.13253	-14727.90900
0.44387	81294.77079	2424.02086	68.04831	-14750.01261
0.44290	81226.80639	2423.02086	67.96439	-14772.04895
0.44194	81158.92563	2422.02086	67.88077	-14794.01829
0.44098	81091.12820	2421.02086	67.79743	-14815.92091
0.44002	81023.41381	2420.02086	67.71439	-14837.75708
0.43906	80955.78217	2419.02086	67.63164	-14859.52710
0.43810	80888.23300	2418.02086	67.54917	-14881.23122
0.43715	80820.76601	2417.02086	67.46699	-14902.86974
0.43620	80753.38090	2416.02086	67.38510	-14924.44291
0.43525	80686.07741	2415.02086	67.30350	-14945.95102
0.43430	80618.85523	2414.02086	67.22217	-14967.39433
0.43336	80551.71410	2413.02086	67.14113	-14988.77311
0.43241	80484.65372	2412.02086	67.06038	-15010.08764
0.43147	80417.67383	2411.02086	66.97990	-15031.33819
0.43053	80350.77413	2410.02086	66.89970	-15052.52501
0.42960	80283.95436	2409.02086	66.81977	-15073.64837
0.42866	80217.21423	2408.02086	66.74013	-15094.70855
0.42773	80150.55348	2407.02086	66.66075	-15115.70580
0.42680	80083.97182	2406.02086	66.58166	-15136.64038
0.42587	80017.46899	2405.02086	66.50283	-15157.51256
0.42494	79951.04472	2404.02086	66.42428	-15178.32260
0.42402	79884.69872	2403.02086	66.34599	-15199.07076
0.42309	79818.43074	2402.02086	66.26798	-15219.75729
0.42217	79752.24051	2401.02086	66.19023	-15240.38246
0.42126	79686.12775	2400.02086	66.11275	-15260.94651
0.42034	79620.09221	2399.02086	66.03554	-15281.44971
0.41942	79554.13362	2398.02086	65.95859	-15301.89231
0.41851	79488.25171	2397.02086	65.88191	-15322.27456
0.41760	79422.44623	2396.02086	65.80548	-15342.59672
0.41669	79356.71691	2395.02086	65.72932	-15362.85902
0.41578	79291.06348	2394.02086	65.65342	-15383.06174
0.41488	79225.48570	2393.02086	65.57778	-15403.20511
0.41398	79159.98331	2392.02086	65.50240	-15423.28938
0.41308	79094.55604	2391.02086	65.42727	-15443.31481
