Mole fraction of liquid	Heat per mole [J]	Temperature [K]	Apparent heat capacity per mole [J/K]	Latent heat per mole [J]
1.00000	1.22957E5	2950.91451	51.44831	0.00000
0.99998	1.22952E5	2950.81889	51.44831	-0.59962
0.99675	1.22791E5	2949.81889	161.33959	-107.02978
0.99353	1.22630E5	2948.81889	160.74382	-212.90939
0.99033	1.22470E5	2947.81889	160.15179	-318.24199
0.98714	1.22310E5	2946.81889	159.56346	-423.03108
0.98397	1.22151E5	2945.81889	158.97882	-527.28013
0.98081	1.21993E5	2944.81889	158.39782	-630.99259
0.97766	1.21835E5	2943.81889	157.82044	-734.17188
0.97453	1.21678E5	2942.81889	157.24666	-836.82139
0.97141	1.21521E5	2941.81889	156.67645	-938.94449
0.96831	1.21365E5	2940.81889	156.10978	-1040.54453
0.96522	1.21210E5	2939.81889	155.54662	-1141.62482
0.96214	1.21055E5	2938.81889	154.98695	-1242.18865
0.95908	1.20900E5	2937.81889	154.43074	-1342.23930
0.95603	1.20746E5	2936.81889	153.87796	-1441.78000
0.95300	1.20593E5	2935.81889	153.32860	-1540.81397
0.94998	1.20440E5	2934.81889	152.78262	-1639.34442
0.94697	1.20288E5	2933.81889	152.23999	-1737.37449
0.94398	1.20136E5	2932.81889	151.70070	-1834.90735
0.94100	1.19985E5	2931.81889	151.16472	-1931.94612
0.93803	1.19834E5	2930.81889	150.63203	-2028.49389
0.93507	1.19684E5	2929.81889	150.10259	-2124.55373
0.93213	1.19535E5	2928.81889	149.57638	-2220.12871
0.92920	1.19386E5	2927.81889	149.05339	-2315.22184
0.92629	1.19237E5	2926.81889	148.53358	-2409.83614
0.92338	1.19089E5	2925.81889	148.01694	-2503.97460
0.92049	1.18942E5	2924.81889	147.50344	-2597.64016
0.91762	1.18795E5	2923.81889	146.99305	-2690.83578
0.91475	1.18648E5	2922.81889	146.48576	-2783.56437
0.91190	1.18502E5	2921.81889	145.98154	-2875.82883
0.90906	1.18357E5	2920.81889	145.48036	-2967.63203
0.90623	1.18212E5	2919.81889	144.98221	-3058.97682
0.90341	1.18067E5	2918.81889	144.48707	-3149.86605
0.90061	1.17923E5	2917.81889	143.99490	-3240.30251
0.89782	1.17780E5	2916.81889	143.50570	-3330.28900
0.89504	1.17637E5	2915.81889	143.01943	-3419.82830
0.89227	1.17494E5	2914.81889	142.53608	-3508.92314
0.88952	1.17352E5	2913.81889	142.05563	-3597.57626
0.88678	1.17211E5	2912.81889	141.57805	-3685.79038
0.88404	1.17069E5	2911.81889	141.10332	-3773.56817
0.88133	1.16929E5	2910.81889	140.63142	-3860.91231
0.87862	1.16789E5	2909.81889	140.16233	-3947.82545
0.87592	1.16649E5	2908.81889	139.69604	-4034.31022
0.87324	1.16510E5	2907.81889	139.23252	-4120.36923
0.87056	1.16371E5	2906.81889	138.77175	-4206.00507
0.86790	1.16233E5	2905.81889	138.31370	-4291.22032
0.86525	1.16095E5	2904.81889	137.85837	-4376.01754
0.86261	1.15957E5	2903.81889	137.40573	-4460.39925
0.85998	1.15820E5	2902.81889	136.95577	-4544.36798
0.85737	1.15684E5	2901.81889	136.50845	-4627.92623
0.85476	1.15548E5	2900.81889	136.06377	-4711.07648
0.85217	1.15412E5	2899.81889	135.62171	-4793.82119
0.84958	1.15277E5	2898.81889	135.18224	-4876.16280
0.84701	1.15142E5	2897.81889	134.74535	-4958.10376
0.84445	1.15008E5	2896.81889	134.31101	-5039.64646
0.84190	1.14874E5	2895.81889	133.87922	-5120.79330
0.83936	1.14741E5	2894.81889	133.44995	-5201.54666
0.83683	1.14608E5	2893.81889	133.02319	-5281.90890
0.83431	1.14475E5	2892.81889	132.59891	-5361.88235
0.83180	1.14343E5	2891.81889	132.17710	-5441.46935
0.82930	1.14211E5	2890.81889	131.75774	-5520.67220
0.82681	1.14080E5	2889.81889	131.34082	-5599.49320
0.82434	1.13949E5	2888.81889	130.92631	-5677.93462
0.82187	1.13818E5	2887.81889	130.51420	-5755.99872
0.81941	1.13688E5	2886.81889	130.10448	-5833.68774
0.81697	1.13559E5	2885.81889	129.69712	-5911.00392
0.81453	1.13429E5	2884.81889	129.29211	-5987.94946
0.81211	1.13300E5	2883.81889	128.88944	-6064.52656
0.80969	1.13172E5	2882.81889	128.48908	-6140.73741
0.80728	1.13044E5	2881.81889	128.09102	-6216.58416
0.80489	1.12916E5	2880.81889	127.69524	-6292.06896
0.80250	1.12789E5	2879.81889	127.30173	-6367.19396
0.80012	1.12662E5	2878.81889	126.91048	-6441.96127
0.79776	1.12535E5	2877.81889	126.52146	-6516.37300
0.79540	1.12409E5	2876.81889	126.13466	-6590.43123
0.79305	1.12283E5	2875.81889	125.75006	-6664.13804
0.79072	1.12158E5	2874.81889	125.36766	-6737.49549
0.78839	1.12033E5	2873.81889	124.98743	-6810.50564
0.78607	1.11908E5	2872.81889	124.60935	-6883.17050
0.78376	1.11784E5	2871.81889	124.23343	-6955.49210
0.78146	1.11660E5	2870.81889	123.85963	-7027.47245
0.77917	1.11537E5	2869.81889	123.48795	-7099.11352
0.77689	1.11414E5	2868.81889	123.11836	-7170.41730
0.77462	1.11291E5	2867.81889	122.75087	-7241.38576
0.77235	1.11169E5	2866.81889	122.38544	-7312.02083
0.77010	1.11047E5	2865.81889	122.02207	-7382.32445
0.76786	1.10925E5	2864.81889	121.66074	-7452.29855
0.76562	1.10804E5	2863.81889	121.30144	-7521.94503
0.76339	1.10683E5	2862.81889	120.94416	-7591.26579
0.76118	1.10562E5	2861.81889	120.58888	-7660.26271
0.75897	1.10442E5	2860.81889	120.23558	-7728.93766
0.75677	1.10322E5	2859.81889	119.88426	-7797.29249
0.75458	1.10202E5	2858.81889	119.53489	-7865.32905
0.75240	1.10083E5	2857.81889	119.18748	-7933.04917
0.75022	1.09964E5	2856.81889	118.84199	-8000.45466
0.74806	1.09846E5	2855.81889	118.49843	-8067.54734
0.74590	1.09728E5	2854.81889	118.15677	-8134.32900
0.74375	1.09610E5	2853.81889	117.81701	-8200.80141
0.74162	1.09492E5	2852.81889	117.47913	-8266.96634
0.73949	1.09375E5	2851.81889	117.14312	-8332.82556
0.73736	1.09259E5	2850.81889	116.80896	-8398.38081
0.73525	1.09142E5	2849.81889	116.47665	-8463.63381
0.73315	1.09026E5	2848.81889	116.14616	-8528.58630
0.73105	1.08910E5	2847.81889	115.81750	-8593.23997
0.72896	1.08795E5	2846.81889	115.49064	-8657.59653
0.72688	1.08679E5	2845.81889	115.16557	-8721.65767
0.72481	1.08565E5	2844.81889	114.84229	-8785.42505
0.72274	1.08450E5	2843.81889	114.52077	-8848.90035
0.72069	1.08336E5	2842.81889	114.20102	-8912.08521
0.71864	1.08222E5	2841.81889	113.88301	-8974.98128
0.71660	1.08108E5	2840.81889	113.56673	-9037.59018
0.71457	1.07995E5	2839.81889	113.25218	-9099.91353
0.71254	1.07882E5	2838.81889	112.93933	-9161.95295
0.71053	1.07770E5	2837.81889	112.62819	-9223.71003
0.70852	1.07657E5	2836.81889	112.31874	-9285.18635
0.70652	1.07545E5	2835.81889	112.01096	-9346.38349
0.70453	1.07434E5	2834.81889	111.70485	-9407.30303
0.70254	1.07322E5	2833.81889	111.40039	-9467.94650
0.70057	1.07211E5	2832.81889	111.09758	-9528.31546
0.69860	1.07100E5	2831.81889	110.79640	-9588.41145
0.69663	1.06990E5	2830.81889	110.49684	-9648.23598
0.69468	1.06880E5	2829.81889	110.19890	-9707.79057
0.69273	1.06770E5	2828.81889	109.90255	-9767.07672
0.69079	1.06660E5	2827.81889	109.60780	-9826.09593
0.68886	1.06551E5	2826.81889	109.31462	-9884.84967
0.68694	1.06442E5	2825.81889	109.02301	-9943.33944
0.68502	1.06333E5	2824.81889	108.73297	-10001.56668
0.68311	1.06225E5	2823.81889	108.44447	-10059.53286
0.68121	1.06116E5	2822.81889	108.15751	-10117.23941
0.67931	1.06009E5	2821.81889	107.87207	-10174.68778
0.67743	1.05901E5	2820.81889	107.58816	-10231.87939
0.67554	1.05794E5	2819.81889	107.30575	-10288.81565
0.67367	1.05687E5	2818.81889	107.02485	-10345.49798
0.67180	1.05580E5	2817.81889	106.74543	-10401.92778
0.66995	1.05473E5	2816.81889	106.46749	-10458.10642
0.66809	1.05367E5	2815.81889	106.19102	-10514.03529
0.66625	1.05261E5	2814.81889	105.91601	-10569.71577
0.66441	1.05156E5	2813.81889	105.64245	-10625.14921
0.66258	1.05050E5	2812.81889	105.37033	-10680.33696
0.66075	1.04945E5	2811.81889	105.09964	-10735.28038
0.65894	1.04840E5	2810.81889	104.83038	-10789.98079
0.65712	1.04736E5	2809.81889	104.56252	-10844.43952
0.65532	1.04631E5	2808.81889	104.29608	-10898.65789
0.65352	1.04527E5	2807.81889	104.03102	-10952.63721
0.65173	1.04424E5	2806.81889	103.76735	-11006.37878
0.64995	1.04320E5	2805.81889	103.50506	-11059.88390
0.64817	1.04217E5	2804.81889	103.24414	-11113.15384
0.64640	1.04114E5	2803.81889	102.98457	-11166.18989
0.64464	1.04011E5	2802.81889	102.72636	-11218.99330
0.64288	1.03909E5	2801.81889	102.46949	-11271.56535
0.64113	1.03807E5	2800.81889	102.21395	-11323.90728
0.63939	1.03705E5	2799.81889	101.95973	-11376.02033
0.63765	1.03603E5	2798.81889	101.70683	-11427.90574
0.63592	1.03501E5	2797.81889	101.45524	-11479.56474
0.63419	1.03400E5	2796.81889	101.20495	-11530.99854
0.63247	1.03299E5	2795.81889	100.95595	-11582.20836
0.63076	1.03199E5	2794.81889	100.70823	-11633.19540
0.62905	1.03098E5	2793.81889	100.46178	-11683.96086
0.62736	1.02998E5	2792.81889	100.21661	-11734.50593
0.62566	1.02898E5	2791.81889	99.97269	-11784.83179
0.62397	1.02798E5	2790.81889	99.73002	-11834.93960
0.62229	1.02699E5	2789.81889	99.48859	-11884.83054
0.62062	1.02599E5	2788.81889	99.24840	-11934.50577
0.61895	1.02500E5	2787.81889	99.00944	-11983.96643
0.61729	1.02402E5	2786.81889	98.77169	-12033.21367
0.61563	1.02303E5	2785.81889	98.53515	-12082.24863
0.61398	1.02205E5	2784.81889	98.29982	-12131.07243
0.61234	1.02107E5	2783.81889	98.06569	-12179.68621
0.61070	1.02009E5	2782.81889	97.83274	-12228.09106
0.60906	1.01911E5	2781.81889	97.60098	-12276.28811
0.60744	1.01814E5	2780.81889	97.37039	-12324.27845
0.60582	1.01717E5	2779.81889	97.14096	-12372.06317
0.60420	1.01620E5	2778.81889	96.91269	-12419.64337
0.60259	1.01523E5	2777.81889	96.68558	-12467.02012
0.60099	1.01427E5	2776.81889	96.45961	-12514.19450
0.59939	1.01331E5	2775.81889	96.23478	-12561.16758
0.59780	1.01234E5	2774.81889	96.01107	-12607.94041
0.59621	1.01139E5	2773.81889	95.78849	-12654.51404
0.59463	1.01043E5	2772.81889	95.56703	-12700.88954
0.59306	1.00948E5	2771.81889	95.34668	-12747.06793
0.59149	1.00853E5	2770.81889	95.12742	-12793.05025
0.58993	1.00758E5	2769.81889	94.90927	-12838.83752
0.58837	1.00663E5	2768.81889	94.69220	-12884.43078
0.58682	1.00569E5	2767.81889	94.47621	-12929.83102
0.58527	1.00474E5	2766.81889	94.26130	-12975.03927
0.58373	1.00380E5	2765.81889	94.04746	-13020.05653
0.58219	1.00286E5	2764.81889	93.83468	-13064.88378
0.58066	1.00193E5	2763.81889	93.62296	-13109.52202
0.57914	1.00099E5	2762.81889	93.41228	-13153.97224
0.57762	1.00006E5	2761.81889	93.20265	-13198.23541
0.57610	99913.21126	2760.81889	92.99405	-13242.31250
0.57460	99820.42478	2759.81889	92.78648	-13286.20448
0.57309	99727.84485	2758.81889	92.57994	-13329.91230
0.57159	99635.47044	2757.81889	92.37441	-13373.43693
0.57010	99543.30055	2756.81889	92.16989	-13416.77931
0.56861	99451.33417	2755.81889	91.96638	-13459.94038
0.56713	99359.57030	2754.81889	91.76387	-13502.92107
0.56565	99268.00796	2753.81889	91.56234	-13545.72233
0.56418	99176.64615	2752.81889	91.36181	-13588.34506
0.56271	99085.48390	2751.81889	91.16225	-13630.79020
0.56125	98994.52022	2750.81889	90.96367	-13673.05866
0.55980	98903.75416	2749.81889	90.76606	-13715.15134
0.55834	98813.18475	2748.81889	90.56941	-13757.06914
0.55690	98722.81103	2747.81889	90.37372	-13798.81297
0.55546	98632.63206	2746.81889	90.17898	-13840.38372
0.55402	98542.64688	2745.81889	89.98518	-13881.78226
0.55259	98452.85456	2744.81889	89.79232	-13923.00949
0.55116	98363.25417	2743.81889	89.60039	-13964.06627
0.54974	98273.84477	2742.81889	89.40940	-14004.95348
0.54832	98184.62544	2741.81889	89.21932	-14045.67198
0.54691	98095.59528	2740.81889	89.03017	-14086.22264
0.54550	98006.75336	2739.81889	88.84192	-14126.60629
0.54410	97918.09878	2738.81889	88.65458	-14166.82381
0.54271	97829.63064	2737.81889	88.46814	-14206.87602
0.54131	97741.34804	2736.81889	88.28259	-14246.76377
0.53992	97653.25010	2735.81889	88.09794	-14286.48789
0.53854	97565.33594	2734.81889	87.91417	-14326.04922
0.53716	97477.60466	2733.81889	87.73127	-14365.44857
0.53579	97390.05540	2732.81889	87.54926	-14404.68676
0.53442	97302.68730	2731.81889	87.36811	-14443.76461
0.53306	97215.49948	2730.81889	87.18782	-14482.68293
0.53170	97128.49109	2729.81889	87.00839	-14521.44252
0.53034	97041.66128	2728.81889	86.82981	-14560.04418
0.52899	96955.00919	2727.81889	86.65208	-14598.48871
0.52765	96868.53400	2726.81889	86.47520	-14636.77689
0.52630	96782.23485	2725.81889	86.29915	-14674.90952
0.52497	96696.11091	2724.81889	86.12394	-14712.88737
0.52364	96610.16136	2723.81889	85.94955	-14750.71122
0.52231	96524.38538	2722.81889	85.77598	-14788.38184
0.52098	96438.78214	2721.81889	85.60324	-14825.89999
0.51967	96353.35083	2720.81889	85.43131	-14863.26645
0.51835	96268.09065	2719.81889	85.26018	-14900.48196
0.51704	96183.00079	2718.81889	85.08986	-14937.54728
0.51574	96098.08045	2717.81889	84.92034	-14974.46317
0.51444	96013.32884	2716.81889	84.75161	-15011.23035
0.51314	95928.74517	2715.81889	84.58367	-15047.84959
0.51185	95844.32865	2714.81889	84.41652	-15084.32160
0.51056	95760.07850	2713.81889	84.25015	-15120.64712
0.50927	95675.99395	2712.81889	84.08455	-15156.82689
0.50799	95592.07422	2711.81889	83.91972	-15192.86161
0.50672	95508.31856	2710.81889	83.75566	-15228.75202
0.50545	95424.72619	2709.81889	83.59237	-15264.49882
0.50418	95341.29636	2708.81889	83.42983	-15300.10273
0.50292	95258.02832	2707.81889	83.26804	-15335.56445
0.50166	95174.92132	2706.81889	83.10700	-15370.88468
0.50041	95091.97461	2705.81889	82.94671	-15406.06412
0.49916	95009.18745	2704.81889	82.78716	-15441.10347
0.49791	94926.55911	2703.81889	82.62834	-15476.00342
0.49667	94844.08885	2702.81889	82.47026	-15510.76464
0.49543	94761.77596	2701.81889	82.31290	-15545.38783
0.49420	94679.61969	2700.81889	82.15626	-15579.87366
0.49297	94597.61935	2699.81889	82.00035	-15614.22280
0.49174	94515.77421	2698.81889	81.84514	-15648.43592
0.49052	94434.08355	2697.81889	81.69065	-15682.51370
0.48930	94352.54669	2696.81889	81.53687	-15716.45679
0.48809	94271.16290	2695.81889	81.38379	-15750.26586
0.48688	94189.93150	2694.81889	81.23140	-15783.94154
0.48567	94108.85179	2693.81889	81.07971	-15817.48451
0.48447	94027.92307	2692.81889	80.92871	-15850.89540
0.48327	93947.14467	2691.81889	80.77840	-15884.17486
0.48208	93866.51591	2690.81889	80.62877	-15917.32352
0.48089	93786.03609	2689.81889	80.47982	-15950.34203
0.47970	93705.70455	2688.81889	80.33154	-15983.23102
0.47852	93625.52062	2687.81889	80.18393	-16015.99111
0.47734	93545.48363	2686.81889	80.03699	-16048.62293
0.47616	93465.59291	2685.81889	79.89071	-16081.12710
0.47499	93385.84782	2684.81889	79.74510	-16113.50424
0.47382	93306.24769	2683.81889	79.60013	-16145.75497
0.47266	93226.79186	2682.81889	79.45582	-16177.87989
0.47150	93147.47970	2681.81889	79.31216	-16209.87961
0.47035	93068.31056	2680.81889	79.16914	-16241.75474
0.46919	92989.28380	2679.81889	79.02676	-16273.50588
0.46804	92910.39878	2678.81889	78.88502	-16305.13363
0.46690	92831.65486	2677.81889	78.74391	-16336.63857
0.46576	92753.05143	2676.81889	78.60344	-16368.02130
0.46462	92674.58784	2675.81889	78.46358	-16399.28241
0.46348	92596.26349	2674.81889	78.32436	-16430.42248
0.46235	92518.07774	2673.81889	78.18575	-16461.44210
0.46123	92440.02999	2672.81889	78.04775	-16492.34183
0.46010	92362.11962	2671.81889	77.91037	-16523.12225
0.45898	92284.34603	2670.81889	77.77360	-16553.78394
0.45787	92206.70860	2669.81889	77.63743	-16584.32746
0.45675	92129.20674	2668.81889	77.50186	-16614.75337
0.45565	92051.83985	2667.81889	77.36689	-16645.06224
0.45454	91974.60733	2666.81889	77.23252	-16675.25462
0.45344	91897.50859	2665.81889	77.09874	-16705.33108
0.45234	91820.54304	2664.81889	76.96555	-16735.29216
0.45124	91743.71010	2663.81889	76.83294	-16765.13840
0.45015	91667.00919	2662.81889	76.70091	-16794.87037
0.44906	91590.43973	2661.81889	76.56946	-16824.48859
0.44798	91514.00114	2660.81889	76.43859	-16853.99361
0.44689	91437.69284	2659.81889	76.30829	-16883.38597
0.44582	91361.51428	2658.81889	76.17856	-16912.66620
0.44474	91285.46489	2657.81889	76.04940	-16941.83482
0.44367	91209.54409	2656.81889	75.92079	-16970.89237
0.44260	91133.75134	2655.81889	75.79275	-16999.83938
0.44154	91058.08608	2654.81889	75.66526	-17028.67636
0.44047	90982.54775	2653.81889	75.53833	-17057.40383
0.43942	90907.13581	2652.81889	75.41195	-17086.02231
0.43836	90831.84970	2651.81889	75.28611	-17114.53232
0.43731	90756.68888	2650.81889	75.16082	-17142.93436
0.43626	90681.65282	2649.81889	75.03607	-17171.22894
0.43521	90606.74096	2648.81889	74.91185	-17199.41656
0.43417	90531.95279	2647.81889	74.78817	-17227.49774
0.43313	90457.28776	2646.81889	74.66503	-17255.47296
0.43210	90382.74535	2645.81889	74.54241	-17283.34272
0.43106	90308.32503	2644.81889	74.42032	-17311.10752
0.43003	90234.02628	2643.81889	74.29875	-17338.76785
0.42901	90159.84857	2642.81889	74.17771	-17366.32420
0.42799	90085.79140	2641.81889	74.05718	-17393.77705
0.42697	90011.85424	2640.81889	73.93716	-17421.12689
0.42595	89938.03658	2639.81889	73.81766	-17448.37419
0.42493	89864.33791	2638.81889	73.69867	-17475.51944
0.42392	89790.75773	2637.81889	73.58018	-17502.56311
0.42292	89717.29553	2636.81889	73.46220	-17529.50567
0.42191	89643.95082	2635.81889	73.34471	-17556.34760
0.42091	89570.72309	2634.81889	73.22773	-17583.08935
0.41991	89497.61185	2633.81889	73.11124	-17609.73140
0.41892	89424.61661	2632.81889	72.99524	-17636.27421
0.41792	89351.73687	2631.81889	72.87974	-17662.71824
0.41693	89278.97216	2630.81889	72.76472	-17689.06394
0.41595	89206.32197	2629.81889	72.65018	-17715.31177
0.41496	89133.78585	2628.81889	72.53613	-17741.46218
0.41398	89061.36329	2627.81889	72.42256	-17767.51563
0.41300	88989.05383	2626.81889	72.30946	-17793.47256
0.41203	88916.85699	2625.81889	72.19684	-17819.33342
0.41106	88844.77230	2624.81889	72.08469	-17845.09864
0.41009	88772.79930	2623.81889	71.97301	-17870.76868
0.40912	88700.93751	2622.81889	71.86179	-17896.34396
0.40816	88629.18647	2621.81889	71.75104	-17921.82493
0.40720	88557.54572	2620.81889	71.64075	-17947.21201
0.40624	88486.01480	2619.81889	71.53092	-17972.50564
0.40529	88414.59326	2618.81889	71.42155	-17997.70625
0.40433	88343.28063	2617.81889	71.31263	-18022.81427
0.40339	88272.07647	2616.81889	71.20416	-18047.83011
0.40244	88200.98034	2615.81889	71.09614	-18072.75420
0.40150	88129.99177	2614.81889	70.98857	-18097.58697
0.40056	88059.11033	2613.81889	70.88144	-18122.32882
0.39962	87988.33558	2612.81889	70.77475	-18146.98017
0.39868	87917.66708	2611.81889	70.66851	-18171.54144
0.39775	87847.10438	2610.81889	70.56270	-18196.01304
0.39682	87776.64706	2609.81889	70.45732	-18220.39537
0.39589	87706.29468	2608.81889	70.35238	-18244.68885
0.39497	87636.04681	2607.81889	70.24787	-18268.89387
0.39405	87565.90302	2606.81889	70.14379	-18293.01084
0.39313	87495.86289	2605.81889	70.04013	-18317.04016
0.39221	87425.92599	2604.81889	69.93690	-18340.98223
0.39130	87356.09191	2603.81889	69.83408	-18364.83744
0.39039	87286.36022	2602.81889	69.73169	-18388.60619
0.38948	87216.73051	2601.81889	69.62971	-18412.28887
0.38858	87147.20236	2600.81889	69.52815	-18435.88587
0.38767	87077.77536	2599.81889	69.42700	-18459.39758
0.38677	87008.44910	2598.81889	69.32626	-18482.82438
0.38588	86939.22317	2597.81889	69.22593	-18506.16665
0.38498	86870.09717	2596.81889	69.12600	-18529.42478
0.38409	86801.07069	2595.81889	69.02648	-18552.59915
0.38320	86732.14333	2594.81889	68.92736	-18575.69014
0.38231	86663.31470	2593.81889	68.82864	-18598.69812
0.38143	86594.58439	2592.81889	68.73031	-18621.62346
0.38054	86525.95200	2591.81889	68.63238	-18644.46654
0.37966	86457.41716	2590.81889	68.53485	-18667.22772
0.37879	86388.97945	2589.81889	68.43770	-18689.90738
0.37791	86320.63851	2588.81889	68.34095	-18712.50588
0.37704	86252.39393	2587.81889	68.24458	-18735.02359
0.37617	86184.24533	2586.81889	68.14859	-18757.46086
0.37530	86116.19234	2585.81889	68.05299	-18779.81806
0.37444	86048.23457	2584.81889	67.95777	-18802.09555
0.37358	85980.37163	2583.81889	67.86293	-18824.29368
0.37272	85912.60317	2582.81889	67.76847	-18846.41281
0.37186	85844.92879	2581.81889	67.67438	-18868.45328
0.37100	85777.34812	2580.81889	67.58066	-18890.41546
0.37015	85709.86081	2579.81889	67.48732	-18912.29970
0.36930	85642.46646	2578.81889	67.39434	-18934.10633
0.36845	85575.16473	2577.81889	67.30173	-18955.83570
0.36761	85507.95524	2576.81889	67.20949	-18977.48817
0.36677	85440.83763	2575.81889	67.11761	-18999.06406
0.36593	85373.81154	2574.81889	67.02609	-19020.56373
0.36509	85306.87661	2573.81889	66.93493	-19041.98751
0.36425	85240.03247	2572.81889	66.84413	-19063.33574
0.36342	85173.27879	2571.81889	66.75369	-19084.60875
0.36259	85106.61519	2570.81889	66.66360	-19105.80687
