Mole fraction of liquid	Heat per mole [J]	Temperature [K]	Apparent heat capacity per mole [J/K]	Latent heat per mole [J]
1.00000	1.22682E5	2948.82375	51.27944	0.00000
0.99998	1.22677E5	2948.72812	51.27944	-0.58932
0.99679	1.22518E5	2947.72812	159.47757	-105.13279
0.99360	1.22359E5	2946.72812	158.89329	-209.13734
0.99044	1.22201E5	2945.72812	158.31266	-312.60643
0.98728	1.22043E5	2944.72812	157.73566	-415.54345
0.98415	1.21886E5	2943.72812	157.16224	-517.95181
0.98102	1.21729E5	2942.72812	156.59240	-619.83485
0.97791	1.21573E5	2941.72812	156.02609	-721.19593
0.97481	1.21418E5	2940.72812	155.46330	-822.03836
0.97173	1.21263E5	2939.72812	154.90399	-922.36542
0.96866	1.21109E5	2938.72812	154.34814	-1022.18037
0.96561	1.20955E5	2937.72812	153.79573	-1121.48645
0.96256	1.20801E5	2936.72812	153.24672	-1220.28688
0.95954	1.20649E5	2935.72812	152.70110	-1318.58483
0.95652	1.20497E5	2934.72812	152.15883	-1416.38349
0.95352	1.20345E5	2933.72812	151.61989	-1513.68599
0.95053	1.20194E5	2932.72812	151.08427	-1610.49544
0.94756	1.20043E5	2931.72812	150.55192	-1706.81493
0.94460	1.19893E5	2930.72812	150.02283	-1802.64755
0.94165	1.19744E5	2929.72812	149.49698	-1897.99634
0.93871	1.19595E5	2928.72812	148.97433	-1992.86431
0.93579	1.19446E5	2927.72812	148.45487	-2087.25448
0.93288	1.19298E5	2926.72812	147.93858	-2181.16982
0.92998	1.19151E5	2925.72812	147.42542	-2274.61329
0.92710	1.19004E5	2924.72812	146.91537	-2367.58782
0.92422	1.18858E5	2923.72812	146.40842	-2460.09632
0.92136	1.18712E5	2922.72812	145.90454	-2552.14170
0.91852	1.18566E5	2921.72812	145.40370	-2643.72682
0.91568	1.18422E5	2920.72812	144.90589	-2734.85452
0.91286	1.18277E5	2919.72812	144.41108	-2825.52763
0.91005	1.18133E5	2918.72812	143.91925	-2915.74897
0.90725	1.17990E5	2917.72812	143.43037	-3005.52131
0.90447	1.17847E5	2916.72812	142.94444	-3094.84743
0.90169	1.17704E5	2915.72812	142.46141	-3183.73006
0.89893	1.17562E5	2914.72812	141.98128	-3272.17193
0.89618	1.17421E5	2913.72812	141.50403	-3360.17575
0.89344	1.17280E5	2912.72812	141.02962	-3447.74420
0.89072	1.17139E5	2911.72812	140.55805	-3534.87995
0.88800	1.16999E5	2910.72812	140.08928	-3621.58563
0.88530	1.16860E5	2909.72812	139.62331	-3707.86389
0.88261	1.16720E5	2908.72812	139.16010	-3793.71732
0.87993	1.16582E5	2907.72812	138.69964	-3879.14851
0.87726	1.16443E5	2906.72812	138.24191	-3964.16003
0.87460	1.16306E5	2905.72812	137.78689	-4048.75443
0.87196	1.16168E5	2904.72812	137.33456	-4132.93425
0.86932	1.16031E5	2903.72812	136.88490	-4216.70199
0.86670	1.15895E5	2902.72812	136.43789	-4300.06016
0.86409	1.15759E5	2901.72812	135.99352	-4383.01122
0.86149	1.15623E5	2900.72812	135.55176	-4465.55764
0.85890	1.15488E5	2899.72812	135.11259	-4547.70186
0.85632	1.15354E5	2898.72812	134.67599	-4629.44630
0.85375	1.15219E5	2897.72812	134.24196	-4710.79338
0.85119	1.15086E5	2896.72812	133.81046	-4791.74547
0.84865	1.14952E5	2895.72812	133.38148	-4872.30494
0.84611	1.14819E5	2894.72812	132.95501	-4952.47417
0.84358	1.14687E5	2893.72812	132.53102	-5032.25547
0.84107	1.14555E5	2892.72812	132.10950	-5111.65117
0.83856	1.14423E5	2891.72812	131.69043	-5190.66359
0.83607	1.14292E5	2890.72812	131.27379	-5269.29500
0.83359	1.14161E5	2889.72812	130.85957	-5347.54767
0.83111	1.14030E5	2888.72812	130.44774	-5425.42387
0.82865	1.13900E5	2887.72812	130.03829	-5502.92582
0.82620	1.13771E5	2886.72812	129.63121	-5580.05576
0.82376	1.13641E5	2885.72812	129.22648	-5656.81589
0.82132	1.13513E5	2884.72812	128.82408	-5733.20841
0.81890	1.13384E5	2883.72812	128.42399	-5809.23548
0.81649	1.13256E5	2882.72812	128.02620	-5884.89928
0.81409	1.13129E5	2881.72812	127.63069	-5960.20194
0.81170	1.13001E5	2880.72812	127.23744	-6035.14560
0.80931	1.12874E5	2879.72812	126.84645	-6109.73237
0.80694	1.12748E5	2878.72812	126.45769	-6183.96435
0.80458	1.12622E5	2877.72812	126.07115	-6257.84363
0.80222	1.12496E5	2876.72812	125.68682	-6331.37228
0.79988	1.12371E5	2875.72812	125.30467	-6404.55236
0.79755	1.12246E5	2874.72812	124.92469	-6477.38590
0.79522	1.12121E5	2873.72812	124.54687	-6549.87494
0.79291	1.11997E5	2872.72812	124.17119	-6622.02149
0.79060	1.11874E5	2871.72812	123.79764	-6693.82754
0.78830	1.11750E5	2870.72812	123.42621	-6765.29509
0.78602	1.11627E5	2869.72812	123.05687	-6836.42611
0.78374	1.11504E5	2868.72812	122.68961	-6907.22254
0.78147	1.11382E5	2867.72812	122.32443	-6977.68635
0.77921	1.11260E5	2866.72812	121.96130	-7047.81946
0.77696	1.11138E5	2865.72812	121.60021	-7117.62378
0.77472	1.11017E5	2864.72812	121.24114	-7187.10122
0.77249	1.10896E5	2863.72812	120.88409	-7256.25367
0.77027	1.10776E5	2862.72812	120.52904	-7325.08301
0.76805	1.10656E5	2861.72812	120.17597	-7393.59111
0.76585	1.10536E5	2860.72812	119.82487	-7461.77981
0.76365	1.10416E5	2859.72812	119.47574	-7529.65095
0.76146	1.10297E5	2858.72812	119.12854	-7597.20637
0.75928	1.10178E5	2857.72812	118.78328	-7664.44787
0.75711	1.10060E5	2856.72812	118.43994	-7731.37726
0.75495	1.09942E5	2855.72812	118.09850	-7797.99633
0.75280	1.09824E5	2854.72812	117.75895	-7864.30685
0.75065	1.09707E5	2853.72812	117.42128	-7930.31059
0.74852	1.09590E5	2852.72812	117.08548	-7996.00930
0.74639	1.09473E5	2851.72812	116.75153	-8061.40472
0.74427	1.09356E5	2850.72812	116.41942	-8126.49858
0.74216	1.09240E5	2849.72812	116.08914	-8191.29260
0.74006	1.09125E5	2848.72812	115.76068	-8255.78848
0.73796	1.09009E5	2847.72812	115.43402	-8319.98792
0.73588	1.08894E5	2846.72812	115.10916	-8383.89260
0.73380	1.08779E5	2845.72812	114.78607	-8447.50419
0.73173	1.08665E5	2844.72812	114.46475	-8510.82435
0.72967	1.08551E5	2843.72812	114.14519	-8573.85473
0.72762	1.08437E5	2842.72812	113.82737	-8636.59696
0.72557	1.08323E5	2841.72812	113.51128	-8699.05267
0.72353	1.08210E5	2840.72812	113.19692	-8761.22349
0.72150	1.08097E5	2839.72812	112.88426	-8823.11100
0.71948	1.07985E5	2838.72812	112.57330	-8884.71681
0.71747	1.07872E5	2837.72812	112.26403	-8946.04249
0.71546	1.07760E5	2836.72812	111.95643	-9007.08963
0.71346	1.07649E5	2835.72812	111.65050	-9067.85978
0.71147	1.07537E5	2834.72812	111.34622	-9128.35449
0.70949	1.07426E5	2833.72812	111.04358	-9188.57530
0.70752	1.07316E5	2832.72812	110.74257	-9248.52375
0.70555	1.07205E5	2831.72812	110.44318	-9308.20135
0.70359	1.07095E5	2830.72812	110.14540	-9367.60962
0.70164	1.06985E5	2829.72812	109.84922	-9426.75006
0.69969	1.06876E5	2828.72812	109.55463	-9485.62415
0.69776	1.06766E5	2827.72812	109.26162	-9544.23337
0.69583	1.06657E5	2826.72812	108.97017	-9602.57920
0.69390	1.06549E5	2825.72812	108.68028	-9660.66310
0.69199	1.06440E5	2824.72812	108.39194	-9718.48652
0.69008	1.06332E5	2823.72812	108.10513	-9776.05090
0.68818	1.06224E5	2822.72812	107.81985	-9833.35766
0.68629	1.06117E5	2821.72812	107.53609	-9890.40825
0.68440	1.06010E5	2820.72812	107.25383	-9947.20406
0.68252	1.05903E5	2819.72812	106.97307	-10003.74650
0.68065	1.05796E5	2818.72812	106.69380	-10060.03696
0.67879	1.05690E5	2817.72812	106.41600	-10116.07684
0.67693	1.05583E5	2816.72812	106.13967	-10171.86750
0.67508	1.05478E5	2815.72812	105.86480	-10227.41032
0.67324	1.05372E5	2814.72812	105.59137	-10282.70666
0.67140	1.05267E5	2813.72812	105.31939	-10337.75785
0.66957	1.05162E5	2812.72812	105.04883	-10392.56525
0.66775	1.05057E5	2811.72812	104.77970	-10447.13018
0.66593	1.04952E5	2810.72812	104.51198	-10501.45398
0.66412	1.04848E5	2809.72812	104.24565	-10555.53794
0.66232	1.04744E5	2808.72812	103.98072	-10609.38339
0.66053	1.04640E5	2807.72812	103.71718	-10662.99161
0.65874	1.04537E5	2806.72812	103.45501	-10716.36390
0.65696	1.04434E5	2805.72812	103.19420	-10769.50153
0.65518	1.04331E5	2804.72812	102.93476	-10822.40579
0.65341	1.04228E5	2803.72812	102.67666	-10875.07793
0.65165	1.04126E5	2802.72812	102.41990	-10927.51920
0.64989	1.04024E5	2801.72812	102.16447	-10979.73087
0.64814	1.03922E5	2800.72812	101.91036	-11031.71417
0.64640	1.03820E5	2799.72812	101.65757	-11083.47032
0.64466	1.03719E5	2798.72812	101.40609	-11135.00056
0.64294	1.03617E5	2797.72812	101.15590	-11186.30610
0.64121	1.03516E5	2796.72812	100.90700	-11237.38815
0.63949	1.03416E5	2795.72812	100.65938	-11288.24790
0.63778	1.03315E5	2794.72812	100.41304	-11338.88656
0.63608	1.03215E5	2793.72812	100.16795	-11389.30531
0.63438	1.03115E5	2792.72812	99.92413	-11439.50533
0.63269	1.03016E5	2791.72812	99.68155	-11489.48778
0.63100	1.02916E5	2790.72812	99.44022	-11539.25382
0.62932	1.02817E5	2789.72812	99.20011	-11588.80463
0.62765	1.02718E5	2788.72812	98.96124	-11638.14133
0.62598	1.02619E5	2787.72812	98.72357	-11687.26508
0.62432	1.02521E5	2786.72812	98.48712	-11736.17700
0.62267	1.02423E5	2785.72812	98.25187	-11784.87823
0.62102	1.02325E5	2784.72812	98.01782	-11833.36988
0.61937	1.02227E5	2783.72812	97.78495	-11881.65307
0.61774	1.02129E5	2782.72812	97.55326	-11929.72889
0.61611	1.02032E5	2781.72812	97.32274	-11977.59845
0.61448	1.01935E5	2780.72812	97.09339	-12025.26284
0.61286	1.01838E5	2779.72812	96.86519	-12072.72314
0.61125	1.01741E5	2778.72812	96.63814	-12119.98043
0.60964	1.01645E5	2777.72812	96.41224	-12167.03579
0.60804	1.01549E5	2776.72812	96.18747	-12213.89026
0.60644	1.01453E5	2775.72812	95.96383	-12260.54493
0.60485	1.01357E5	2774.72812	95.74131	-12307.00082
0.60327	1.01261E5	2773.72812	95.51991	-12353.25899
0.60169	1.01166E5	2772.72812	95.29961	-12399.32048
0.60011	1.01071E5	2771.72812	95.08041	-12445.18631
0.59854	1.00976E5	2770.72812	94.86231	-12490.85751
0.59698	1.00882E5	2769.72812	94.64529	-12536.33511
0.59543	1.00787E5	2768.72812	94.42936	-12581.62010
0.59387	1.00693E5	2767.72812	94.21450	-12626.71350
0.59233	1.00599E5	2766.72812	94.00070	-12671.61630
0.59079	1.00505E5	2765.72812	93.78796	-12716.32951
0.58925	1.00412E5	2764.72812	93.57628	-12760.85410
0.58772	1.00318E5	2763.72812	93.36565	-12805.19106
0.58620	1.00225E5	2762.72812	93.15605	-12849.34136
0.58468	1.00132E5	2761.72812	92.94749	-12893.30597
0.58317	1.00039E5	2760.72812	92.73996	-12937.08585
0.58166	99946.83544	2759.72812	92.53345	-12980.68197
0.58016	99854.50749	2758.72812	92.32795	-13024.09527
0.57866	99762.38402	2757.72812	92.12346	-13067.32669
0.57717	99670.46404	2756.72812	91.91998	-13110.37718
0.57568	99578.74655	2755.72812	91.71749	-13153.24767
0.57420	99487.23055	2754.72812	91.51600	-13195.93909
0.57272	99395.91507	2753.72812	91.31548	-13238.45236
0.57125	99304.79912	2752.72812	91.11595	-13280.78839
0.56979	99213.88174	2751.72812	90.91739	-13322.94810
0.56833	99123.16194	2750.72812	90.71979	-13364.93240
0.56687	99032.63879	2749.72812	90.52316	-13406.74218
0.56542	98942.31131	2748.72812	90.32748	-13448.37833
0.56397	98852.17856	2747.72812	90.13275	-13489.84175
0.56253	98762.23960	2746.72812	89.93896	-13531.13332
0.56110	98672.49349	2745.72812	89.74611	-13572.25392
0.55967	98582.93929	2744.72812	89.55419	-13613.20442
0.55824	98493.57609	2743.72812	89.36320	-13653.98568
0.55682	98404.40296	2742.72812	89.17313	-13694.59858
0.55540	98315.41898	2741.72812	88.98398	-13735.04396
0.55399	98226.62325	2740.72812	88.79573	-13775.32268
0.55259	98138.01487	2739.72812	88.60839	-13815.43559
0.55118	98049.59292	2738.72812	88.42194	-13855.38353
0.54979	97961.35653	2737.72812	88.23639	-13895.16733
0.54840	97873.30480	2736.72812	88.05173	-13934.78782
0.54701	97785.43685	2735.72812	87.86795	-13974.24584
0.54563	97697.75180	2734.72812	87.68505	-14013.54220
0.54425	97610.24879	2733.72812	87.50302	-14052.67772
0.54288	97522.92694	2732.72812	87.32185	-14091.65321
0.54151	97435.78539	2731.72812	87.14155	-14130.46949
0.54014	97348.82329	2730.72812	86.96210	-14169.12734
0.53878	97262.03978	2729.72812	86.78351	-14207.62757
0.53743	97175.43402	2728.72812	86.60576	-14245.97097
0.53608	97089.00517	2727.72812	86.42885	-14284.15833
0.53474	97002.75240	2726.72812	86.25278	-14322.19043
0.53339	96916.67486	2725.72812	86.07754	-14360.06805
0.53206	96830.77174	2724.72812	85.90312	-14397.79196
0.53073	96745.04221	2723.72812	85.72953	-14435.36294
0.52940	96659.48546	2722.72812	85.55675	-14472.78174
0.52808	96574.10067	2721.72812	85.38479	-14510.04913
0.52676	96488.88705	2720.72812	85.21363	-14547.16587
0.52544	96403.84377	2719.72812	85.04327	-14584.13269
0.52414	96318.97006	2718.72812	84.87371	-14620.95036
0.52283	96234.26512	2717.72812	84.70495	-14657.61961
0.52153	96149.72815	2716.72812	84.53697	-14694.14118
0.52023	96065.35838	2715.72812	84.36977	-14730.51581
0.51894	95981.15503	2714.72812	84.20335	-14766.74422
0.51765	95897.11732	2713.72812	84.03771	-14802.82714
0.51637	95813.24448	2712.72812	83.87284	-14838.76528
0.51509	95729.53575	2711.72812	83.70873	-14874.55938
0.51382	95645.99037	2710.72812	83.54538	-14910.21013
0.51255	95562.60758	2709.72812	83.38279	-14945.71824
0.51128	95479.38664	2708.72812	83.22095	-14981.08443
0.51002	95396.32678	2707.72812	83.05985	-15016.30939
0.50876	95313.42728	2706.72812	82.89950	-15051.39381
0.50750	95230.68738	2705.72812	82.73989	-15086.33838
0.50626	95148.10637	2704.72812	82.58101	-15121.14381
0.50501	95065.68350	2703.72812	82.42287	-15155.81076
0.50377	94983.41806	2702.72812	82.26544	-15190.33992
0.50253	94901.30931	2701.72812	82.10874	-15224.73196
0.50130	94819.35655	2700.72812	81.95276	-15258.98756
0.50007	94737.55906	2699.72812	81.79749	-15293.10738
0.49884	94655.91613	2698.72812	81.64293	-15327.09209
0.49762	94574.42706	2697.72812	81.48907	-15360.94234
0.49640	94493.09114	2696.72812	81.33592	-15394.65880
0.49519	94411.90769	2695.72812	81.18346	-15428.24212
0.49398	94330.87599	2694.72812	81.03169	-15461.69294
0.49277	94249.99538	2693.72812	80.88061	-15495.01191
0.49157	94169.26516	2692.72812	80.73022	-15528.19968
0.49038	94088.68465	2691.72812	80.58051	-15561.25687
0.48918	94008.25318	2690.72812	80.43147	-15594.18413
0.48799	93927.97007	2689.72812	80.28311	-15626.98208
0.48681	93847.83465	2688.72812	80.13542	-15659.65135
0.48562	93767.84626	2687.72812	79.98839	-15692.19257
0.48444	93688.00423	2686.72812	79.84202	-15724.60635
0.48327	93608.30792	2685.72812	79.69631	-15756.89331
0.48210	93528.75666	2684.72812	79.55126	-15789.05406
0.48093	93449.34981	2683.72812	79.40685	-15821.08921
0.47977	93370.08671	2682.72812	79.26310	-15852.99937
0.47861	93290.96673	2681.72812	79.11998	-15884.78514
0.47745	93211.98922	2680.72812	78.97750	-15916.44712
0.47630	93133.15356	2679.72812	78.83566	-15947.98590
0.47515	93054.45911	2678.72812	78.69445	-15979.40207
0.47401	92975.90523	2677.72812	78.55387	-16010.69623
0.47287	92897.49132	2676.72812	78.41392	-16041.86896
0.47173	92819.21674	2675.72812	78.27458	-16072.92084
0.47059	92741.08088	2674.72812	78.13586	-16103.85244
0.46946	92663.08312	2673.72812	77.99776	-16134.66435
0.46834	92585.22285	2672.72812	77.86027	-16165.35714
0.46721	92507.49947	2671.72812	77.72338	-16195.93138
0.46609	92429.91237	2670.72812	77.58710	-16226.38762
0.46498	92352.46096	2669.72812	77.45142	-16256.72644
0.46386	92275.14463	2668.72812	77.31633	-16286.94840
0.46276	92197.96279	2667.72812	77.18184	-16317.05404
0.46165	92120.91485	2666.72812	77.04794	-16347.04392
0.46055	92044.00022	2665.72812	76.91462	-16376.91860
0.45945	91967.21833	2664.72812	76.78189	-16406.67862
0.45835	91890.56859	2663.72812	76.64974	-16436.32452
0.45726	91814.05042	2662.72812	76.51817	-16465.85685
0.45617	91737.66325	2661.72812	76.38717	-16495.27614
0.45509	91661.40651	2660.72812	76.25674	-16524.58292
0.45401	91585.27963	2659.72812	76.12688	-16553.77774
0.45293	91509.28205	2658.72812	75.99758	-16582.86111
0.45185	91433.41320	2657.72812	75.86885	-16611.83356
0.45078	91357.67254	2656.72812	75.74067	-16640.69563
0.44971	91282.05949	2655.72812	75.61304	-16669.44781
0.44865	91206.57352	2654.72812	75.48597	-16698.09065
0.44759	91131.21407	2653.72812	75.35945	-16726.62464
0.44653	91055.98060	2652.72812	75.23347	-16755.05030
0.44547	90980.87256	2651.72812	75.10804	-16783.36814
0.44442	90905.88942	2650.72812	74.98314	-16811.57866
0.44337	90831.03064	2649.72812	74.85878	-16839.68238
0.44233	90756.29568	2648.72812	74.73496	-16867.67978
0.44129	90681.68402	2647.72812	74.61166	-16895.57136
0.44025	90607.19512	2646.72812	74.48890	-16923.35763
0.43921	90532.82846	2645.72812	74.36666	-16951.03907
0.43818	90458.58353	2644.72812	74.24494	-16978.61617
0.43715	90384.45979	2643.72812	74.12373	-17006.08941
0.43612	90310.45674	2642.72812	74.00305	-17033.45930
0.43510	90236.57386	2641.72812	73.88288	-17060.72629
0.43408	90162.81065	2640.72812	73.76322	-17087.89088
0.43306	90089.16658	2639.72812	73.64406	-17114.95354
0.43205	90015.64116	2638.72812	73.52542	-17141.91474
0.43104	89942.23389	2637.72812	73.40727	-17168.77495
0.43003	89868.94427	2636.72812	73.28962	-17195.53465
0.42903	89795.77180	2635.72812	73.17247	-17222.19429
0.42802	89722.71598	2634.72812	73.05582	-17248.75435
0.42703	89649.77632	2633.72812	72.93965	-17275.21527
0.42603	89576.95235	2632.72812	72.82398	-17301.57753
0.42504	89504.24356	2631.72812	72.70879	-17327.84157
0.42405	89431.64948	2630.72812	72.59408	-17354.00786
0.42306	89359.16963	2629.72812	72.47985	-17380.07683
0.42208	89286.80353	2628.72812	72.36610	-17406.04895
0.42110	89214.55070	2627.72812	72.25283	-17431.92464
0.42012	89142.41067	2626.72812	72.14003	-17457.70437
0.41914	89070.38297	2625.72812	72.02770	-17483.38857
0.41817	88998.46713	2624.72812	71.91584	-17508.97768
0.41720	88926.66269	2623.72812	71.80444	-17534.47213
0.41624	88854.96919	2622.72812	71.69350	-17559.87236
0.41527	88783.38616	2621.72812	71.58303	-17585.17881
0.41431	88711.91314	2620.72812	71.47301	-17610.39189
0.41336	88640.54969	2619.72812	71.36345	-17635.51205
0.41240	88569.29535	2618.72812	71.25434	-17660.53970
0.41145	88498.14967	2617.72812	71.14568	-17685.47526
0.41050	88427.11220	2616.72812	71.03747	-17710.31916
0.40956	88356.18249	2615.72812	70.92971	-17735.07182
0.40861	88285.36011	2614.72812	70.82238	-17759.73364
0.40767	88214.64461	2613.72812	70.71550	-17784.30505
0.40673	88144.03556	2612.72812	70.60906	-17808.78646
0.40580	88073.53251	2611.72812	70.50305	-17833.17827
0.40487	88003.13503	2610.72812	70.39747	-17857.48090
0.40394	87932.84270	2609.72812	70.29233	-17881.69474
0.40301	87862.65509	2608.72812	70.18762	-17905.82021
0.40209	87792.57176	2607.72812	70.08333	-17929.85769
0.40117	87722.59229	2606.72812	69.97947	-17953.80760
0.40025	87652.71627	2605.72812	69.87602	-17977.67032
0.39933	87582.94327	2604.72812	69.77300	-18001.44626
0.39842	87513.27287	2603.72812	69.67040	-18025.13579
0.39751	87443.70466	2602.72812	69.56821	-18048.73933
0.39660	87374.23822	2601.72812	69.46644	-18072.25724
0.39569	87304.87315	2600.72812	69.36507	-18095.68992
0.39479	87235.60903	2599.72812	69.26412	-18119.03775
0.39389	87166.44547	2598.72812	69.16357	-18142.30112
0.39299	87097.38204	2597.72812	69.06342	-18165.48041
0.39210	87028.41836	2596.72812	68.96368	-18188.57598
0.39121	86959.55402	2595.72812	68.86434	-18211.58823
0.39032	86890.78862	2594.72812	68.76540	-18234.51752
0.38943	86822.12178	2593.72812	68.66685	-18257.36422
0.38854	86753.55308	2592.72812	68.56869	-18280.12872
0.38766	86685.08215	2591.72812	68.47093	-18302.81136
0.38678	86616.70859	2590.72812	68.37356	-18325.41253
0.38591	86548.43201	2589.72812	68.27658	-18347.93258
0.38503	86480.25203	2588.72812	68.17998	-18370.37188
0.38416	86412.16827	2587.72812	68.08376	-18392.73079
0.38329	86344.18034	2586.72812	67.98793	-18415.00967
0.38242	86276.28787	2585.72812	67.89247	-18437.20887
0.38156	86208.49047	2584.72812	67.79740	-18459.32875
0.38070	86140.78777	2583.72812	67.70270	-18481.36967
0.37984	86073.17940	2582.72812	67.60837	-18503.33197
0.37898	86005.66499	2581.72812	67.51441	-18525.21601
0.37812	85938.24416	2580.72812	67.42083	-18547.02213
0.37727	85870.91655	2579.72812	67.32761	-18568.75068
0.37642	85803.68179	2578.72812	67.23476	-18590.40200
0.37557	85736.53952	2577.72812	67.14227	-18611.97644
0.37473	85669.48937	2576.72812	67.05015	-18633.47434
0.37389	85602.53099	2575.72812	66.95838	-18654.89603
0.37305	85535.66402	2574.72812	66.86697	-18676.24185
0.37221	85468.88809	2573.72812	66.77592	-18697.51215
0.37137	85402.20287	2572.72812	66.68523	-18718.70725
0.37054	85335.60798	2571.72812	66.59488	-18739.82748
0.36971	85269.10309	2570.72812	66.50489	-18760.87318
0.36888	85202.68785	2569.72812	66.41525	-18781.84468
0.36805	85136.36189	2568.72812	66.32595	-18802.74229
