Mole fraction of liquid	Heat per mole [J]	Temperature [K]	Apparent heat capacity per mole [J/K]	Latent heat per mole [J]
1.00000	1.33516E5	3114.63544	56.00370	-2.91038E-11
0.99998	1.33510E5	3114.53981	56.00370	-0.94214
0.99558	1.33288E5	3113.53981	222.62854	-167.99608
0.99122	1.33066E5	3112.53981	221.47634	-333.95484
0.98688	1.32846E5	3111.53981	220.33338	-498.82732
0.98257	1.32627E5	3110.53981	219.19959	-662.62236
0.97828	1.32409E5	3109.53981	218.07486	-825.34870
0.97402	1.32192E5	3108.53981	216.95911	-987.01498
0.96978	1.31976E5	3107.53981	215.85226	-1147.62979
0.96557	1.31761E5	3106.53981	214.75422	-1307.20162
0.96139	1.31547E5	3105.53981	213.66490	-1465.73885
0.95722	1.31335E5	3104.53981	212.58422	-1623.24983
0.95309	1.31123E5	3103.53981	211.51210	-1779.74279
0.94897	1.30913E5	3102.53981	210.44846	-1935.22590
0.94489	1.30703E5	3101.53981	209.39321	-2089.70725
0.94082	1.30495E5	3100.53981	208.34627	-2243.19485
0.93678	1.30288E5	3099.53981	207.30757	-2395.69662
0.93276	1.30081E5	3098.53981	206.27703	-2547.22043
0.92877	1.29876E5	3097.53981	205.25457	-2697.77404
0.92480	1.29672E5	3096.53981	204.24011	-2847.36518
0.92085	1.29469E5	3095.53981	203.23357	-2996.00148
0.91693	1.29266E5	3094.53981	202.23489	-3143.69049
0.91303	1.29065E5	3093.53981	201.24399	-3290.43970
0.90915	1.28865E5	3092.53981	200.26079	-3436.25654
0.90529	1.28666E5	3091.53981	199.28523	-3581.14835
0.90146	1.28467E5	3090.53981	198.31722	-3725.12240
0.89765	1.28270E5	3089.53981	197.35671	-3868.18592
0.89386	1.28074E5	3088.53981	196.40362	-4010.34603
0.89009	1.27878E5	3087.53981	195.45787	-4151.60982
0.88634	1.27684E5	3086.53981	194.51941	-4291.98430
0.88262	1.27490E5	3085.53981	193.58816	-4431.47640
0.87891	1.27297E5	3084.53981	192.66406	-4570.09300
0.87523	1.27106E5	3083.53981	191.74704	-4707.84093
0.87157	1.26915E5	3082.53981	190.83703	-4844.72692
0.86793	1.26725E5	3081.53981	189.93398	-4980.75766
0.86431	1.26536E5	3080.53981	189.03781	-5115.93979
0.86071	1.26348E5	3079.53981	188.14846	-5250.27986
0.85713	1.26160E5	3078.53981	187.26587	-5383.78437
0.85357	1.25974E5	3077.53981	186.38998	-5516.45977
0.85003	1.25789E5	3076.53981	185.52073	-5648.31245
0.84651	1.25604E5	3075.53981	184.65805	-5779.34872
0.84301	1.25420E5	3074.53981	183.80188	-5909.57485
0.83953	1.25237E5	3073.53981	182.95217	-6038.99705
0.83607	1.25055E5	3072.53981	182.10886	-6167.62147
0.83263	1.24874E5	3071.53981	181.27189	-6295.45421
0.82921	1.24693E5	3070.53981	180.44119	-6422.50131
0.82580	1.24514E5	3069.53981	179.61672	-6548.76874
0.82242	1.24335E5	3068.53981	178.79842	-6674.26244
0.81905	1.24157E5	3067.53981	177.98622	-6798.98829
0.81571	1.23980E5	3066.53981	177.18009	-6922.95210
0.81238	1.23803E5	3065.53981	176.37995	-7046.15964
0.80907	1.23628E5	3064.53981	175.58576	-7168.61664
0.80578	1.23453E5	3063.53981	174.79747	-7290.32875
0.80251	1.23279E5	3062.53981	174.01502	-7411.30160
0.79925	1.23106E5	3061.53981	173.23835	-7531.54073
0.79601	1.22933E5	3060.53981	172.46742	-7651.05168
0.79279	1.22762E5	3059.53981	171.70218	-7769.83989
0.78959	1.22591E5	3058.53981	170.94257	-7887.91079
0.78641	1.22420E5	3057.53981	170.18855	-8005.26974
0.78324	1.22251E5	3056.53981	169.44006	-8121.92205
0.78009	1.22082E5	3055.53981	168.69706	-8237.87300
0.77696	1.21914E5	3054.53981	167.95949	-8353.12782
0.77384	1.21747E5	3053.53981	167.22731	-8467.69167
0.77074	1.21581E5	3052.53981	166.50047	-8581.56969
0.76766	1.21415E5	3051.53981	165.77893	-8694.76696
0.76459	1.21250E5	3050.53981	165.06263	-8807.28853
0.76155	1.21085E5	3049.53981	164.35154	-8919.13938
0.75851	1.20922E5	3048.53981	163.64560	-9030.32447
0.75550	1.20759E5	3047.53981	162.94477	-9140.84871
0.75250	1.20597E5	3046.53981	162.24900	-9250.71696
0.74951	1.20435E5	3045.53981	161.55826	-9359.93403
0.74654	1.20274E5	3044.53981	160.87249	-9468.50472
0.74359	1.20114E5	3043.53981	160.19166	-9576.43375
0.74066	1.19954E5	3042.53981	159.51572	-9683.72583
0.73774	1.19796E5	3041.53981	158.84463	-9790.38560
0.73483	1.19637E5	3040.53981	158.17834	-9896.41768
0.73194	1.19480E5	3039.53981	157.51681	-10001.82664
0.72907	1.19323E5	3038.53981	156.86001	-10106.61701
0.72621	1.19167E5	3037.53981	156.20789	-10210.79330
0.72336	1.19011E5	3036.53981	155.56042	-10314.35994
0.72053	1.18856E5	3035.53981	154.91754	-10417.32137
0.71772	1.18702E5	3034.53981	154.27923	-10519.68195
0.71492	1.18548E5	3033.53981	153.64544	-10621.44603
0.71213	1.18395E5	3032.53981	153.01613	-10722.61792
0.70936	1.18243E5	3031.53981	152.39127	-10823.20186
0.70661	1.18091E5	3030.53981	151.77082	-10923.20210
0.70387	1.17940E5	3029.53981	151.15474	-11022.62283
0.70114	1.17790E5	3028.53981	150.54299	-11121.46819
0.69843	1.17640E5	3027.53981	149.93553	-11219.74232
0.69573	1.17490E5	3026.53981	149.33234	-11317.44930
0.69304	1.17342E5	3025.53981	148.73336	-11414.59318
0.69037	1.17193E5	3024.53981	148.13858	-11511.17797
0.68771	1.17046E5	3023.53981	147.54795	-11607.20765
0.68507	1.16899E5	3022.53981	146.96143	-11702.68618
0.68244	1.16752E5	3021.53981	146.37900	-11797.61746
0.67982	1.16607E5	3020.53981	145.80061	-11892.00539
0.67722	1.16461E5	3019.53981	145.22623	-11985.85379
0.67463	1.16317E5	3018.53981	144.65584	-12079.16650
0.67206	1.16173E5	3017.53981	144.08939	-12171.94730
0.66949	1.16029E5	3016.53981	143.52686	-12264.19993
0.66694	1.15886E5	3015.53981	142.96820	-12355.92811
0.66441	1.15744E5	3014.53981	142.41340	-12447.13554
0.66188	1.15602E5	3013.53981	141.86241	-12537.82586
0.65937	1.15461E5	3012.53981	141.31520	-12628.00272
0.65687	1.15320E5	3011.53981	140.77175	-12717.66970
0.65439	1.15180E5	3010.53981	140.23201	-12806.83036
0.65191	1.15040E5	3009.53981	139.69597	-12895.48825
0.64945	1.14901E5	3008.53981	139.16359	-12983.64688
0.64701	1.14762E5	3007.53981	138.63483	-13071.30971
0.64457	1.14624E5	3006.53981	138.10968	-13158.48020
0.64215	1.14486E5	3005.53981	137.58810	-13245.16177
0.63973	1.14349E5	3004.53981	137.07005	-13331.35781
0.63733	1.14213E5	3003.53981	136.55552	-13417.07169
0.63495	1.14077E5	3002.53981	136.04447	-13502.30673
0.63257	1.13941E5	3001.53981	135.53688	-13587.06625
0.63021	1.13806E5	3000.53981	135.03270	-13671.35352
0.62786	1.13672E5	2999.53981	134.53193	-13755.17181
0.62552	1.13538E5	2998.53981	134.03453	-13838.52434
0.62319	1.13404E5	2997.53981	133.54047	-13921.41430
0.62087	1.13271E5	2996.53981	133.04972	-14003.84488
0.61857	1.13138E5	2995.53981	132.56226	-14085.81922
0.61627	1.13006E5	2994.53981	132.07807	-14167.34044
0.61399	1.12875E5	2993.53981	131.59711	-14248.41164
0.61172	1.12744E5	2992.53981	131.11935	-14329.03589
0.60946	1.12613E5	2991.53981	130.64478	-14409.21625
0.60721	1.12483E5	2990.53981	130.17337	-14488.95572
0.60497	1.12353E5	2989.53981	129.70509	-14568.25731
0.60274	1.12224E5	2988.53981	129.23991	-14647.12399
0.60053	1.12095E5	2987.53981	128.77782	-14725.55871
0.59832	1.11967E5	2986.53981	128.31878	-14803.56439
0.59613	1.11839E5	2985.53981	127.86277	-14881.14394
0.59395	1.11712E5	2984.53981	127.40977	-14958.30024
0.59177	1.11585E5	2983.53981	126.95976	-15035.03613
0.58961	1.11458E5	2982.53981	126.51270	-15111.35445
0.58746	1.11332E5	2981.53981	126.06858	-15187.25801
0.58532	1.11206E5	2980.53981	125.62738	-15262.74959
0.58318	1.11081E5	2979.53981	125.18906	-15337.83197
0.58106	1.10956E5	2978.53981	124.75361	-15412.50788
0.57895	1.10832E5	2977.53981	124.32100	-15486.78003
0.57685	1.10708E5	2976.53981	123.89121	-15560.65114
0.57476	1.10585E5	2975.53981	123.46423	-15634.12388
0.57268	1.10462E5	2974.53981	123.04002	-15707.20089
0.57061	1.10339E5	2973.53981	122.61856	-15779.88482
0.56855	1.10217E5	2972.53981	122.19984	-15852.17829
0.56650	1.10095E5	2971.53981	121.78383	-15924.08387
0.56446	1.09974E5	2970.53981	121.37051	-15995.60415
0.56243	1.09853E5	2969.53981	120.95986	-16066.74168
0.56041	1.09732E5	2968.53981	120.55186	-16137.49899
0.55839	1.09612E5	2967.53981	120.14648	-16207.87858
0.55639	1.09492E5	2966.53981	119.74371	-16277.88296
0.55440	1.09373E5	2965.53981	119.34353	-16347.51460
0.55242	1.09254E5	2964.53981	118.94592	-16416.77594
0.55044	1.09135E5	2963.53981	118.55085	-16485.66942
0.54848	1.09017E5	2962.53981	118.15831	-16554.19746
0.54652	1.08900E5	2961.53981	117.76827	-16622.36245
0.54458	1.08782E5	2960.53981	117.38073	-16690.16677
0.54264	1.08665E5	2959.53981	116.99565	-16757.61277
0.54071	1.08549E5	2958.53981	116.61302	-16824.70281
0.53879	1.08432E5	2957.53981	116.23282	-16891.43919
0.53688	1.08316E5	2956.53981	115.85503	-16957.82423
0.53498	1.08201E5	2955.53981	115.47963	-17023.86020
0.53309	1.08086E5	2954.53981	115.10661	-17089.54938
0.53121	1.07971E5	2953.53981	114.73595	-17154.89402
0.52933	1.07857E5	2952.53981	114.36762	-17219.89635
0.52746	1.07743E5	2951.53981	114.00162	-17284.55859
0.52561	1.07629E5	2950.53981	113.63791	-17348.88294
0.52376	1.07516E5	2949.53981	113.27649	-17412.87157
0.52192	1.07403E5	2948.53981	112.91734	-17476.52666
0.52009	1.07290E5	2947.53981	112.56044	-17539.85035
0.51826	1.07178E5	2946.53981	112.20577	-17602.84477
0.51645	1.07066E5	2945.53981	111.85332	-17665.51204
0.51464	1.06955E5	2944.53981	111.50307	-17727.85426
0.51284	1.06844E5	2943.53981	111.15500	-17789.87352
0.51106	1.06733E5	2942.53981	110.80909	-17851.57188
0.50927	1.06622E5	2941.53981	110.46534	-17912.95138
0.50750	1.06512E5	2940.53981	110.12372	-17974.01408
0.50573	1.06403E5	2939.53981	109.78421	-18034.76199
0.50398	1.06293E5	2938.53981	109.44681	-18095.19711
0.50223	1.06184E5	2937.53981	109.11149	-18155.32144
0.50049	1.06075E5	2936.53981	108.77825	-18215.13694
0.49875	1.05967E5	2935.53981	108.44705	-18274.64559
0.49703	1.05859E5	2934.53981	108.11790	-18333.84933
0.49531	1.05751E5	2933.53981	107.79077	-18392.75008
0.49360	1.05643E5	2932.53981	107.46565	-18451.34976
0.49190	1.05536E5	2931.53981	107.14252	-18509.65028
0.49020	1.05429E5	2930.53981	106.82137	-18567.65352
0.48852	1.05323E5	2929.53981	106.50218	-18625.36135
0.48684	1.05217E5	2928.53981	106.18494	-18682.77565
0.48516	1.05111E5	2927.53981	105.86964	-18739.89824
0.48350	1.05005E5	2926.53981	105.55626	-18796.73096
0.48184	1.04900E5	2925.53981	105.24478	-18853.27563
0.48019	1.04795E5	2924.53981	104.93520	-18909.53406
0.47855	1.04690E5	2923.53981	104.62749	-18965.50803
0.47692	1.04586E5	2922.53981	104.32165	-19021.19932
0.47529	1.04482E5	2921.53981	104.01766	-19076.60970
0.47367	1.04378E5	2920.53981	103.71551	-19131.74092
0.47206	1.04275E5	2919.53981	103.41518	-19186.59471
0.47045	1.04172E5	2918.53981	103.11665	-19241.17280
0.46885	1.04069E5	2917.53981	102.81993	-19295.47691
0.46726	1.03967E5	2916.53981	102.52499	-19349.50874
0.46567	1.03864E5	2915.53981	102.23182	-19403.26996
0.46410	1.03762E5	2914.53981	101.94041	-19456.76226
0.46253	1.03661E5	2913.53981	101.65074	-19509.98730
0.46096	1.03559E5	2912.53981	101.36280	-19562.94673
0.45940	1.03458E5	2911.53981	101.07658	-19615.64219
0.45785	1.03357E5	2910.53981	100.79207	-19668.07531
0.45631	1.03257E5	2909.53981	100.50926	-19720.24769
0.45477	1.03157E5	2908.53981	100.22812	-19772.16094
0.45324	1.03057E5	2907.53981	99.94866	-19823.81666
0.45172	1.02957E5	2906.53981	99.67085	-19875.21642
0.45020	1.02858E5	2905.53981	99.39469	-19926.36179
0.44869	1.02759E5	2904.53981	99.12017	-19977.25433
0.44719	1.02660E5	2903.53981	98.84726	-20027.89558
0.44569	1.02561E5	2902.53981	98.57597	-20078.28707
0.44420	1.02463E5	2901.53981	98.30627	-20128.43033
0.44272	1.02365E5	2900.53981	98.03817	-20178.32687
0.44124	1.02267E5	2899.53981	97.77164	-20227.97820
0.43977	1.02170E5	2898.53981	97.50667	-20277.38579
0.43831	1.02072E5	2897.53981	97.24326	-20326.55114
0.43685	1.01975E5	2896.53981	96.98139	-20375.47570
0.43539	1.01879E5	2895.53981	96.72105	-20424.16095
0.43395	1.01782E5	2894.53981	96.46223	-20472.60831
0.43251	1.01686E5	2893.53981	96.20492	-20520.81924
0.43107	1.01590E5	2892.53981	95.94911	-20568.79516
0.42965	1.01494E5	2891.53981	95.69479	-20616.53748
0.42823	1.01399E5	2890.53981	95.44195	-20664.04762
0.42681	1.01304E5	2889.53981	95.19057	-20711.32696
0.42540	1.01209E5	2888.53981	94.94065	-20758.37690
0.42400	1.01114E5	2887.53981	94.69218	-20805.19881
0.42260	1.01020E5	2886.53981	94.44514	-20851.79406
0.42121	1.00925E5	2885.53981	94.19953	-20898.16401
0.41982	1.00831E5	2884.53981	93.95534	-20944.31000
0.41844	1.00738E5	2883.53981	93.71255	-20990.23337
0.41707	1.00644E5	2882.53981	93.47116	-21035.93545
0.41570	1.00551E5	2881.53981	93.23115	-21081.41756
0.41434	1.00458E5	2880.53981	92.99253	-21126.68101
0.41298	1.00365E5	2879.53981	92.75527	-21171.72710
0.41163	1.00273E5	2878.53981	92.51936	-21216.55712
0.41028	1.00180E5	2877.53981	92.28481	-21261.17235
0.40894	1.00088E5	2876.53981	92.05159	-21305.57407
0.40761	99996.59835	2875.53981	91.81970	-21349.76354
0.40628	99905.00921	2874.53981	91.58914	-21393.74202
0.40496	99813.64933	2873.53981	91.35988	-21437.51075
0.40364	99722.51740	2872.53981	91.13193	-21481.07097
0.40233	99631.61213	2871.53981	90.90527	-21524.42391
0.40102	99540.93224	2870.53981	90.67989	-21567.57079
0.39972	99450.47645	2869.53981	90.45579	-21610.51282
0.39843	99360.24349	2868.53981	90.23295	-21653.25121
0.39713	99270.23212	2867.53981	90.01138	-21695.78715
0.39585	99180.44107	2866.53981	89.79105	-21738.12183
0.39457	99090.86912	2865.53981	89.57196	-21780.25643
0.39330	99001.51502	2864.53981	89.35410	-21822.19212
0.39203	98912.37755	2863.53981	89.13747	-21863.93006
0.39076	98823.45550	2862.53981	88.92205	-21905.47141
0.38950	98734.74767	2861.53981	88.70783	-21946.81730
0.38825	98646.25285	2860.53981	88.49482	-21987.96889
0.38700	98557.96986	2859.53981	88.28299	-22028.92730
0.38576	98469.89751	2858.53981	88.07235	-22069.69366
0.38452	98382.03463	2857.53981	87.86288	-22110.26907
0.38328	98294.38005	2856.53981	87.65458	-22150.65465
0.38206	98206.93261	2855.53981	87.44743	-22190.85150
0.38083	98119.69117	2854.53981	87.24144	-22230.86071
0.37961	98032.65459	2853.53981	87.03659	-22270.68337
0.37840	97945.82172	2852.53981	86.83287	-22310.32055
0.37719	97859.19144	2851.53981	86.63028	-22349.77332
0.37599	97772.76264	2850.53981	86.42880	-22389.04275
0.37479	97686.53419	2849.53981	86.22844	-22428.12989
0.37360	97600.50501	2848.53981	86.02919	-22467.03579
0.37241	97514.67398	2847.53981	85.83103	-22505.76149
0.37122	97429.04002	2846.53981	85.63396	-22544.30803
0.37004	97343.60205	2845.53981	85.43797	-22582.67643
0.36887	97258.35900	2844.53981	85.24306	-22620.86772
0.36770	97173.30979	2843.53981	85.04921	-22658.88290
0.36653	97088.45336	2842.53981	84.85642	-22696.72298
0.36537	97003.78867	2841.53981	84.66469	-22734.38897
0.36421	96919.31467	2840.53981	84.47400	-22771.88186
0.36306	96835.03031	2839.53981	84.28436	-22809.20263
0.36192	96750.93457	2838.53981	84.09574	-22846.35226
0.36077	96667.02642	2837.53981	83.90815	-22883.33173
0.35964	96583.30484	2836.53981	83.72158	-22920.14200
0.35850	96499.76881	2835.53981	83.53602	-22956.78404
0.35737	96416.41735	2834.53981	83.35147	-22993.25879
0.35625	96333.24944	2833.53981	83.16791	-23029.56721
0.35513	96250.26409	2832.53981	82.98535	-23065.71023
0.35401	96167.46032	2831.53981	82.80377	-23101.68879
0.35290	96084.83715	2830.53981	82.62317	-23137.50382
0.35179	96002.39361	2829.53981	82.44354	-23173.15624
0.35069	95920.12873	2828.53981	82.26488	-23208.64697
0.34959	95838.04155	2827.53981	82.08718	-23243.97691
0.34850	95756.13112	2826.53981	81.91043	-23279.14698
0.34741	95674.39650	2825.53981	81.73463	-23314.15807
0.34632	95592.83673	2824.53981	81.55976	-23349.01107
0.34524	95511.45090	2823.53981	81.38584	-23383.70686
0.34417	95430.23806	2822.53981	81.21284	-23418.24634
0.34309	95349.19730	2821.53981	81.04076	-23452.63036
0.34203	95268.32770	2820.53981	80.86960	-23486.85981
0.34096	95187.62834	2819.53981	80.69935	-23520.93555
0.33990	95107.09834	2818.53981	80.53001	-23554.85843
0.33884	95026.73678	2817.53981	80.36156	-23588.62930
0.33779	94946.54278	2816.53981	80.19400	-23622.24901
0.33674	94866.51544	2815.53981	80.02734	-23655.71841
0.33570	94786.65389	2814.53981	79.86155	-23689.03832
0.33466	94706.95725	2813.53981	79.69664	-23722.20957
0.33362	94627.42465	2812.53981	79.53260	-23755.23300
0.33259	94548.05523	2811.53981	79.36942	-23788.10942
0.33156	94468.84813	2810.53981	79.20710	-23820.83964
0.33054	94389.80250	2809.53981	79.04563	-23853.42447
0.32952	94310.91748	2808.53981	78.88502	-23885.86472
0.32850	94232.19224	2807.53981	78.72524	-23918.16118
0.32749	94153.62594	2806.53981	78.56630	-23950.31465
0.32648	94075.21775	2805.53981	78.40819	-23982.32591
0.32548	93996.96684	2804.53981	78.25091	-24014.19574
0.32448	93918.87240	2803.53981	78.09444	-24045.92493
0.32348	93840.93360	2802.53981	77.93880	-24077.51424
0.32249	93763.14964	2801.53981	77.78396	-24108.96444
0.32150	93685.51971	2800.53981	77.62993	-24140.27630
0.32051	93608.04302	2799.53981	77.47669	-24171.45058
0.31953	93530.71876	2798.53981	77.32426	-24202.48801
0.31855	93453.54615	2797.53981	77.17261	-24233.38936
0.31757	93376.52441	2796.53981	77.02174	-24264.15537
0.31660	93299.65275	2795.53981	76.87166	-24294.78677
0.31564	93222.93040	2794.53981	76.72235	-24325.28430
0.31467	93146.35659	2793.53981	76.57381	-24355.64869
0.31371	93069.93055	2792.53981	76.42604	-24385.88066
0.31276	92993.65153	2791.53981	76.27902	-24415.98093
0.31180	92917.51877	2790.53981	76.13276	-24445.95021
0.31085	92841.53152	2789.53981	75.98725	-24475.78922
0.30991	92765.68903	2788.53981	75.84249	-24505.49867
0.30896	92689.99057	2787.53981	75.69846	-24535.07924
0.30803	92614.43539	2786.53981	75.55518	-24564.53165
0.30709	92539.02277	2785.53981	75.41262	-24593.85659
0.30616	92463.75197	2784.53981	75.27080	-24623.05473
0.30523	92388.62228	2783.53981	75.12969	-24652.12677
0.30430	92313.63298	2782.53981	74.98930	-24681.07339
0.30338	92238.78335	2781.53981	74.84963	-24709.89525
0.30246	92164.07268	2780.53981	74.71066	-24738.59304
0.30155	92089.50028	2779.53981	74.57240	-24767.16741
0.30064	92015.06544	2778.53981	74.43484	-24795.61904
0.29973	91940.76745	2777.53981	74.29798	-24823.94858
0.29882	91866.60565	2776.53981	74.16181	-24852.15668
0.29792	91792.57932	2775.53981	74.02632	-24880.24399
0.29702	91718.68780	2774.53981	73.89152	-24908.21117
0.29613	91644.93041	2773.53981	73.75740	-24936.05885
0.29524	91571.30646	2772.53981	73.62395	-24963.78766
0.29435	91497.81529	2771.53981	73.49117	-24991.39826
0.29346	91424.45623	2770.53981	73.35906	-25018.89126
0.29258	91351.22862	2769.53981	73.22761	-25046.26728
0.29170	91278.13181	2768.53981	73.09681	-25073.52697
0.29083	91205.16513	2767.53981	72.96668	-25100.67092
0.28996	91132.32795	2766.53981	72.83719	-25127.69976
0.28909	91059.61960	2765.53981	72.70834	-25154.61410
0.28822	90987.03946	2764.53981	72.58014	-25181.41454
0.28736	90914.58688	2763.53981	72.45258	-25208.10170
0.28650	90842.26123	2762.53981	72.32565	-25234.67616
0.28564	90770.06188	2761.53981	72.19935	-25261.13852
0.28479	90697.98819	2760.53981	72.07368	-25287.48938
0.28394	90626.03956	2759.53981	71.94863	-25313.72932
0.28309	90554.21536	2758.53981	71.82420	-25339.85893
0.28224	90482.51498	2757.53981	71.70038	-25365.87879
0.28140	90410.93780	2756.53981	71.57718	-25391.78949
0.28056	90339.48322	2755.53981	71.45458	-25417.59158
0.27973	90268.15063	2754.53981	71.33259	-25443.28565
0.27889	90196.93944	2753.53981	71.21119	-25468.87225
0.27806	90125.84904	2752.53981	71.09040	-25494.35197
0.27724	90054.87885	2751.53981	70.97019	-25519.72535
0.27641	89984.02827	2750.53981	70.85058	-25544.99295
0.27559	89913.29672	2749.53981	70.73155	-25570.15532
0.27478	89842.68362	2748.53981	70.61310	-25595.21302
0.27396	89772.18839	2747.53981	70.49523	-25620.16659
0.27315	89701.81045	2746.53981	70.37794	-25645.01658
0.27234	89631.54923	2745.53981	70.26122	-25669.76353
0.27153	89561.40416	2744.53981	70.14506	-25694.40797
0.27073	89491.37469	2743.53981	70.02948	-25718.95043
0.26993	89421.46024	2742.53981	69.91445	-25743.39146
0.26913	89351.66026	2741.53981	69.79998	-25767.73156
0.26833	89281.97420	2740.53981	69.68606	-25791.97128
0.26754	89212.40149	2739.53981	69.57270	-25816.11112
0.26675	89142.94161	2738.53981	69.45989	-25840.15162
0.26596	89073.59399	2737.53981	69.34762	-25864.09327
0.26518	89004.35810	2736.53981	69.23589	-25887.93660
0.26440	88935.23340	2735.53981	69.12470	-25911.68211
