Mole fraction of liquid	Heat per mole [J]	Temperature [K]	Apparent heat capacity per mole [J/K]	Latent heat per mole [J]
1.00000	1.32019E5	3106.87250	54.82080	0.00000
0.99998	1.32013E5	3106.77688	54.82080	-0.86030
0.99582	1.31805E5	3105.77688	208.92543	-153.46100
0.99169	1.31597E5	3104.77688	207.87972	-305.07734
0.98758	1.31390E5	3103.77688	206.84227	-455.71723
0.98350	1.31184E5	3102.77688	205.81302	-605.38849
0.97944	1.30979E5	3101.77688	204.79187	-754.09888
0.97540	1.30775E5	3100.77688	203.77875	-901.85608
0.97139	1.30573E5	3099.77688	202.77358	-1048.66769
0.96740	1.30371E5	3098.77688	201.77629	-1194.54124
0.96343	1.30170E5	3097.77688	200.78681	-1339.48418
0.95949	1.29970E5	3096.77688	199.80505	-1483.50392
0.95557	1.29771E5	3095.77688	198.83095	-1626.60776
0.95167	1.29574E5	3094.77688	197.86444	-1768.80296
0.94779	1.29377E5	3093.77688	196.90543	-1910.09668
0.94394	1.29181E5	3092.77688	195.95387	-2050.49606
0.94011	1.28986E5	3091.77688	195.00967	-2190.00812
0.93630	1.28792E5	3090.77688	194.07278	-2328.63984
0.93251	1.28599E5	3089.77688	193.14312	-2466.39814
0.92874	1.28406E5	3088.77688	192.22063	-2603.28986
0.92500	1.28215E5	3087.77688	191.30523	-2739.32178
0.92127	1.28025E5	3086.77688	190.39687	-2874.50062
0.91757	1.27835E5	3085.77688	189.49548	-3008.83304
0.91389	1.27647E5	3084.77688	188.60098	-3142.32562
0.91022	1.27459E5	3083.77688	187.71333	-3274.98491
0.90658	1.27272E5	3082.77688	186.83245	-3406.81736
0.90296	1.27086E5	3081.77688	185.95828	-3537.82939
0.89936	1.26901E5	3080.77688	185.09075	-3668.02734
0.89578	1.26717E5	3079.77688	184.22982	-3797.41751
0.89222	1.26533E5	3078.77688	183.37542	-3926.00613
0.88868	1.26351E5	3077.77688	182.52748	-4053.79938
0.88516	1.26169E5	3076.77688	181.68595	-4180.80337
0.88166	1.25988E5	3075.77688	180.85077	-4307.02416
0.87818	1.25808E5	3074.77688	180.02188	-4432.46776
0.87472	1.25629E5	3073.77688	179.19923	-4557.14012
0.87128	1.25451E5	3072.77688	178.38275	-4681.04713
0.86785	1.25273E5	3071.77688	177.57239	-4804.19464
0.86445	1.25096E5	3070.77688	176.76810	-4926.58842
0.86106	1.24920E5	3069.77688	175.96981	-5048.23423
0.85769	1.24745E5	3068.77688	175.17748	-5169.13773
0.85434	1.24571E5	3067.77688	174.39106	-5289.30456
0.85101	1.24397E5	3066.77688	173.61048	-5408.74030
0.84770	1.24224E5	3065.77688	172.83569	-5527.45048
0.84441	1.24052E5	3064.77688	172.06665	-5645.44057
0.84113	1.23881E5	3063.77688	171.30330	-5762.71601
0.83787	1.23710E5	3062.77688	170.54559	-5879.28217
0.83463	1.23541E5	3061.77688	169.79347	-5995.14438
0.83141	1.23372E5	3060.77688	169.04689	-6110.30793
0.82820	1.23203E5	3059.77688	168.30579	-6224.77805
0.82501	1.23036E5	3058.77688	167.57014	-6338.55993
0.82184	1.22869E5	3057.77688	166.83988	-6451.65872
0.81869	1.22703E5	3056.77688	166.11497	-6564.07950
0.81555	1.22537E5	3055.77688	165.39535	-6675.82733
0.81243	1.22373E5	3054.77688	164.68098	-6786.90721
0.80933	1.22209E5	3053.77688	163.97181	-6897.32410
0.80624	1.22045E5	3052.77688	163.26781	-7007.08292
0.80317	1.21883E5	3051.77688	162.56891	-7116.18854
0.80011	1.21721E5	3050.77688	161.87508	-7224.64579
0.79708	1.21560E5	3049.77688	161.18627	-7332.45945
0.79405	1.21399E5	3048.77688	160.50244	-7439.63427
0.79105	1.21239E5	3047.77688	159.82354	-7546.17495
0.78806	1.21080E5	3046.77688	159.14954	-7652.08615
0.78508	1.20922E5	3045.77688	158.48038	-7757.37249
0.78213	1.20764E5	3044.77688	157.81602	-7862.03855
0.77918	1.20607E5	3043.77688	157.15643	-7966.08887
0.77626	1.20450E5	3042.77688	156.50157	-8069.52793
0.77334	1.20294E5	3041.77688	155.85138	-8172.36022
0.77045	1.20139E5	3040.77688	155.20583	-8274.59013
0.76757	1.19985E5	3039.77688	154.56489	-8376.22206
0.76470	1.19831E5	3038.77688	153.92850	-8477.26034
0.76185	1.19677E5	3037.77688	153.29664	-8577.70929
0.75901	1.19525E5	3036.77688	152.66925	-8677.57317
0.75619	1.19373E5	3035.77688	152.04631	-8776.85621
0.75338	1.19221E5	3034.77688	151.42778	-8875.56260
0.75059	1.19071E5	3033.77688	150.81361	-8973.69651
0.74781	1.18920E5	3032.77688	150.20377	-9071.26204
0.74505	1.18771E5	3031.77688	149.59822	-9168.26330
0.74230	1.18622E5	3030.77688	148.99693	-9264.70434
0.73956	1.18473E5	3029.77688	148.39986	-9360.58915
0.73684	1.18326E5	3028.77688	147.80697	-9455.92174
0.73414	1.18178E5	3027.77688	147.21822	-9550.70604
0.73144	1.18032E5	3026.77688	146.63359	-9644.94598
0.72876	1.17886E5	3025.77688	146.05304	-9738.64542
0.72610	1.17740E5	3024.77688	145.47653	-9831.80822
0.72345	1.17595E5	3023.77688	144.90403	-9924.43819
0.72081	1.17451E5	3022.77688	144.33550	-10016.53911
0.71818	1.17307E5	3021.77688	143.77091	-10108.11473
0.71557	1.17164E5	3020.77688	143.21023	-10199.16877
0.71297	1.17021E5	3019.77688	142.65343	-10289.70491
0.71039	1.16879E5	3018.77688	142.10046	-10379.72682
0.70781	1.16738E5	3017.77688	141.55131	-10469.23810
0.70526	1.16597E5	3016.77688	141.00594	-10558.24237
0.70271	1.16456E5	3015.77688	140.46431	-10646.74317
0.70018	1.16316E5	3014.77688	139.92639	-10734.74404
0.69765	1.16177E5	3013.77688	139.39216	-10822.24849
0.69515	1.16038E5	3012.77688	138.86159	-10909.25999
0.69265	1.15900E5	3011.77688	138.33463	-10995.78198
0.69017	1.15762E5	3010.77688	137.81127	-11081.81788
0.68770	1.15625E5	3009.77688	137.29147	-11167.37107
0.68524	1.15488E5	3008.77688	136.77520	-11252.44492
0.68279	1.15352E5	3007.77688	136.26244	-11337.04276
0.68036	1.15216E5	3006.77688	135.75315	-11421.16788
0.67794	1.15081E5	3005.77688	135.24731	-11504.82357
0.67553	1.14946E5	3004.77688	134.74489	-11588.01307
0.67313	1.14812E5	3003.77688	134.24586	-11670.73960
0.67074	1.14678E5	3002.77688	133.75018	-11753.00637
0.66837	1.14545E5	3001.77688	133.25785	-11834.81653
0.66601	1.14412E5	3000.77688	132.76882	-11916.17323
0.66366	1.14279E5	2999.77688	132.28307	-11997.07959
0.66132	1.14148E5	2998.77688	131.80057	-12077.53870
0.65899	1.14016E5	2997.77688	131.32130	-12157.55361
0.65667	1.13885E5	2996.77688	130.84522	-12237.12738
0.65437	1.13755E5	2995.77688	130.37233	-12316.26302
0.65207	1.13625E5	2994.77688	129.90258	-12394.96351
0.64979	1.13496E5	2993.77688	129.43595	-12473.23183
0.64752	1.13367E5	2992.77688	128.97242	-12551.07091
0.64526	1.13238E5	2991.77688	128.51197	-12628.48368
0.64301	1.13110E5	2990.77688	128.05456	-12705.47302
0.64077	1.12983E5	2989.77688	127.60017	-12782.04181
0.63854	1.12855E5	2988.77688	127.14878	-12858.19290
0.63633	1.12729E5	2987.77688	126.70037	-12933.92910
0.63412	1.12603E5	2986.77688	126.25490	-13009.25323
0.63192	1.12477E5	2985.77688	125.81237	-13084.16805
0.62974	1.12351E5	2984.77688	125.37273	-13158.67633
0.62756	1.12226E5	2983.77688	124.93598	-13232.78080
0.62540	1.12102E5	2982.77688	124.50208	-13306.48416
0.62325	1.11978E5	2981.77688	124.07102	-13379.78912
0.62110	1.11854E5	2980.77688	123.64277	-13452.69834
0.61897	1.11731E5	2979.77688	123.21731	-13525.21447
0.61685	1.11608E5	2978.77688	122.79461	-13597.34012
0.61473	1.11486E5	2977.77688	122.37466	-13669.07792
0.61263	1.11364E5	2976.77688	121.95744	-13740.43043
0.61054	1.11242E5	2975.77688	121.54291	-13811.40023
0.60845	1.11121E5	2974.77688	121.13107	-13881.98986
0.60638	1.11000E5	2973.77688	120.72188	-13952.20184
0.60432	1.10880E5	2972.77688	120.31533	-14022.03867
0.60226	1.10760E5	2971.77688	119.91140	-14091.50283
0.60022	1.10641E5	2970.77688	119.51007	-14160.59680
0.59819	1.10522E5	2969.77688	119.11131	-14229.32301
0.59616	1.10403E5	2968.77688	118.71511	-14297.68388
0.59415	1.10285E5	2967.77688	118.32145	-14365.68183
0.59214	1.10167E5	2966.77688	117.93030	-14433.31924
0.59014	1.10049E5	2965.77688	117.54165	-14500.59848
0.58816	1.09932E5	2964.77688	117.15547	-14567.52189
0.58618	1.09815E5	2963.77688	116.77175	-14634.09180
0.58421	1.09699E5	2962.77688	116.39047	-14700.31054
0.58225	1.09583E5	2961.77688	116.01162	-14766.18038
0.58030	1.09467E5	2960.77688	115.63516	-14831.70362
0.57836	1.09352E5	2959.77688	115.26108	-14896.88250
0.57643	1.09237E5	2958.77688	114.88937	-14961.71927
0.57450	1.09122E5	2957.77688	114.52000	-15026.21615
0.57259	1.09008E5	2956.77688	114.15297	-15090.37535
0.57068	1.08895E5	2955.77688	113.78824	-15154.19905
0.56878	1.08781E5	2954.77688	113.42580	-15217.68944
0.56690	1.08668E5	2953.77688	113.06564	-15280.84865
0.56502	1.08555E5	2952.77688	112.70773	-15343.67884
0.56315	1.08443E5	2951.77688	112.35206	-15406.18212
0.56128	1.08331E5	2950.77688	111.99862	-15468.36060
0.55943	1.08219E5	2949.77688	111.64738	-15530.21637
0.55758	1.08108E5	2948.77688	111.29832	-15591.75150
0.55575	1.07997E5	2947.77688	110.95144	-15652.96805
0.55392	1.07886E5	2946.77688	110.60672	-15713.86806
0.55210	1.07776E5	2945.77688	110.26413	-15774.45355
0.55028	1.07666E5	2944.77688	109.92367	-15834.72655
0.54848	1.07557E5	2943.77688	109.58531	-15894.68903
0.54668	1.07447E5	2942.77688	109.24904	-15954.34299
0.54490	1.07339E5	2941.77688	108.91485	-16013.69039
0.54312	1.07230E5	2940.77688	108.58271	-16072.73317
0.54135	1.07122E5	2939.77688	108.25262	-16131.47327
0.53958	1.07014E5	2938.77688	107.92456	-16189.91261
0.53783	1.06906E5	2937.77688	107.59851	-16248.05310
0.53608	1.06799E5	2936.77688	107.27446	-16305.89663
0.53434	1.06692E5	2935.77688	106.95239	-16363.44507
0.53261	1.06585E5	2934.77688	106.63228	-16420.70029
0.53088	1.06479E5	2933.77688	106.31413	-16477.66414
0.52917	1.06373E5	2932.77688	105.99792	-16534.33845
0.52746	1.06267E5	2931.77688	105.68363	-16590.72504
0.52575	1.06162E5	2930.77688	105.37125	-16646.82572
0.52406	1.06057E5	2929.77688	105.06077	-16702.64228
0.52237	1.05952E5	2928.77688	104.75216	-16758.17651
0.52069	1.05848E5	2927.77688	104.44543	-16813.43016
0.51902	1.05744E5	2926.77688	104.14054	-16868.40500
0.51736	1.05640E5	2925.77688	103.83750	-16923.10277
0.51570	1.05536E5	2924.77688	103.53628	-16977.52518
0.51405	1.05433E5	2923.77688	103.23687	-17031.67396
0.51241	1.05330E5	2922.77688	102.93927	-17085.55081
0.51077	1.05227E5	2921.77688	102.64344	-17139.15742
0.50915	1.05125E5	2920.77688	102.34939	-17192.49546
0.50753	1.05023E5	2919.77688	102.05710	-17245.56660
0.50591	1.04921E5	2918.77688	101.76656	-17298.37249
0.50431	1.04820E5	2917.77688	101.47775	-17350.91477
0.50271	1.04719E5	2916.77688	101.19066	-17403.19507
0.50111	1.04618E5	2915.77688	100.90528	-17455.21501
0.49953	1.04517E5	2914.77688	100.62159	-17506.97618
0.49795	1.04417E5	2913.77688	100.33959	-17558.48018
0.49638	1.04317E5	2912.77688	100.05926	-17609.72858
0.49481	1.04217E5	2911.77688	99.78059	-17660.72297
0.49325	1.04117E5	2910.77688	99.50356	-17711.46489
0.49170	1.04018E5	2909.77688	99.22817	-17761.95590
0.49016	1.03919E5	2908.77688	98.95440	-17812.19752
0.48862	1.03820E5	2907.77688	98.68225	-17862.19127
0.48709	1.03722E5	2906.77688	98.41169	-17911.93868
0.48556	1.03624E5	2905.77688	98.14272	-17961.44124
0.48404	1.03526E5	2904.77688	97.87533	-18010.70044
0.48253	1.03428E5	2903.77688	97.60950	-18059.71777
0.48102	1.03331E5	2902.77688	97.34523	-18108.49468
0.47952	1.03234E5	2901.77688	97.08249	-18157.03264
0.47803	1.03137E5	2900.77688	96.82129	-18205.33310
0.47654	1.03041E5	2899.77688	96.56161	-18253.39749
0.47506	1.02944E5	2898.77688	96.30344	-18301.22724
0.47359	1.02848E5	2897.77688	96.04677	-18348.82376
0.47212	1.02752E5	2896.77688	95.79159	-18396.18847
0.47066	1.02657E5	2895.77688	95.53788	-18443.32275
0.46921	1.02562E5	2894.77688	95.28564	-18490.22799
0.46776	1.02467E5	2893.77688	95.03486	-18536.90558
0.46631	1.02372E5	2892.77688	94.78552	-18583.35687
0.46488	1.02277E5	2891.77688	94.53762	-18629.58322
0.46345	1.02183E5	2890.77688	94.29115	-18675.58598
0.46202	1.02089E5	2889.77688	94.04609	-18721.36648
0.46060	1.01995E5	2888.77688	93.80243	-18766.92606
0.45919	1.01902E5	2887.77688	93.56017	-18812.26603
0.45778	1.01808E5	2886.77688	93.31930	-18857.38769
0.45638	1.01715E5	2885.77688	93.07980	-18902.29236
0.45499	1.01622E5	2884.77688	92.84167	-18946.98131
0.45360	1.01530E5	2883.77688	92.60489	-18991.45583
0.45221	1.01437E5	2882.77688	92.36946	-19035.71720
0.45083	1.01345E5	2881.77688	92.13537	-19079.76667
0.44946	1.01253E5	2880.77688	91.90261	-19123.60549
0.44809	1.01162E5	2879.77688	91.67116	-19167.23492
0.44673	1.01070E5	2878.77688	91.44103	-19210.65619
0.44538	1.00979E5	2877.77688	91.21219	-19253.87053
0.44403	1.00888E5	2876.77688	90.98465	-19296.87915
0.44268	1.00797E5	2875.77688	90.75839	-19339.68327
0.44135	1.00707E5	2874.77688	90.53340	-19382.28408
0.44001	1.00616E5	2873.77688	90.30967	-19424.68279
0.43869	1.00526E5	2872.77688	90.08720	-19466.88058
0.43736	1.00436E5	2871.77688	89.86598	-19508.87862
0.43605	1.00347E5	2870.77688	89.64600	-19550.67808
0.43473	1.00257E5	2869.77688	89.42724	-19592.28012
0.43343	1.00168E5	2868.77688	89.20971	-19633.68590
0.43213	1.00079E5	2867.77688	88.99339	-19674.89656
0.43083	99990.39390	2866.77688	88.77827	-19715.91324
0.42954	99901.82955	2865.77688	88.56435	-19756.73706
0.42826	99813.47792	2864.77688	88.35162	-19797.36914
0.42698	99725.33785	2863.77688	88.14007	-19837.81061
0.42570	99637.40817	2862.77688	87.92969	-19878.06256
0.42443	99549.68770	2861.77688	87.72047	-19918.12608
0.42317	99462.17529	2860.77688	87.51241	-19958.00228
0.42191	99374.86979	2859.77688	87.30549	-19997.69224
0.42066	99287.77008	2858.77688	87.09972	-20037.19702
0.41941	99200.87500	2857.77688	86.89507	-20076.51770
0.41816	99114.18345	2856.77688	86.69155	-20115.65533
0.41692	99027.69430	2855.77688	86.48915	-20154.61098
0.41569	98941.40644	2854.77688	86.28786	-20193.38568
0.41446	98855.31877	2853.77688	86.08767	-20231.98048
0.41324	98769.43021	2852.77688	85.88857	-20270.39640
0.41202	98683.73965	2851.77688	85.69055	-20308.63447
0.41080	98598.24603	2850.77688	85.49362	-20346.69571
0.40959	98512.94827	2849.77688	85.29776	-20384.58113
0.40839	98427.84531	2848.77688	85.10296	-20422.29173
0.40719	98342.93609	2847.77688	84.90922	-20459.82851
0.40599	98258.21956	2846.77688	84.71653	-20497.19246
0.40480	98173.69467	2845.77688	84.52489	-20534.38457
0.40362	98089.36040	2844.77688	84.33427	-20571.40580
0.40244	98005.21571	2843.77688	84.14469	-20608.25713
0.40126	97921.25957	2842.77688	83.95613	-20644.93953
0.40009	97837.49098	2841.77688	83.76859	-20681.45394
0.39892	97753.90893	2840.77688	83.58205	-20717.80133
0.39776	97670.51241	2839.77688	83.39652	-20753.98264
0.39660	97587.30043	2838.77688	83.21198	-20789.99879
0.39545	97504.27200	2837.77688	83.02843	-20825.85074
0.39430	97421.42613	2836.77688	82.84586	-20861.53939
0.39315	97338.76187	2835.77688	82.66427	-20897.06567
0.39201	97256.27822	2834.77688	82.48364	-20932.43050
0.39088	97173.97424	2833.77688	82.30398	-20967.63477
0.38974	97091.84897	2832.77688	82.12527	-21002.67940
0.38862	97009.90145	2831.77688	81.94752	-21037.56527
0.38750	96928.13074	2830.77688	81.77070	-21072.29327
0.38638	96846.53592	2829.77688	81.59483	-21106.86429
0.38526	96765.11604	2828.77688	81.41988	-21141.27921
0.38415	96683.87017	2827.77688	81.24586	-21175.53888
0.38305	96602.79742	2826.77688	81.07276	-21209.64419
0.38195	96521.89685	2825.77688	80.90057	-21243.59599
0.38085	96441.16757	2824.77688	80.72928	-21277.39514
0.37976	96360.60866	2823.77688	80.55890	-21311.04248
0.37867	96280.21925	2822.77688	80.38941	-21344.53885
0.37759	96199.99844	2821.77688	80.22081	-21377.88509
0.37651	96119.94534	2820.77688	80.05310	-21411.08204
0.37543	96040.05909	2819.77688	79.88626	-21444.13052
0.37436	95960.33880	2818.77688	79.72029	-21477.03135
0.37329	95880.78361	2817.77688	79.55519	-21509.78535
0.37223	95801.39267	2816.77688	79.39094	-21542.39332
0.37117	95722.16511	2815.77688	79.22755	-21574.85608
0.37011	95643.10010	2814.77688	79.06502	-21607.17442
0.36906	95564.19678	2813.77688	78.90332	-21639.34913
0.36801	95485.45432	2812.77688	78.74246	-21671.38100
0.36697	95406.87188	2811.77688	78.58244	-21703.27082
0.36593	95328.44864	2810.77688	78.42324	-21735.01937
0.36490	95250.18378	2809.77688	78.26486	-21766.62743
0.36386	95172.07648	2808.77688	78.10730	-21798.09574
0.36284	95094.12593	2807.77688	77.95055	-21829.42510
0.36181	95016.33133	2806.77688	77.79461	-21860.61624
0.36079	94938.69186	2805.77688	77.63946	-21891.66993
0.35978	94861.20675	2804.77688	77.48512	-21922.58691
0.35876	94783.87519	2803.77688	77.33156	-21953.36793
0.35775	94706.69640	2802.77688	77.17879	-21984.01373
0.35675	94629.66960	2801.77688	77.02680	-22014.52504
0.35575	94552.79402	2800.77688	76.87558	-22044.90260
0.35475	94476.06889	2799.77688	76.72513	-22075.14712
0.35376	94399.49344	2798.77688	76.57545	-22105.25933
0.35277	94323.06691	2797.77688	76.42653	-22135.23994
0.35178	94246.78854	2796.77688	76.27837	-22165.08966
0.35080	94170.65759	2795.77688	76.13095	-22194.80921
0.34982	94094.67331	2794.77688	75.98428	-22224.39928
0.34884	94018.83495	2793.77688	75.83836	-22253.86056
0.34787	93943.14179	2792.77688	75.69317	-22283.19377
0.34690	93867.59308	2791.77688	75.54871	-22312.39957
0.34594	93792.18810	2790.77688	75.40498	-22341.47867
0.34498	93716.92614	2789.77688	75.26197	-22370.43173
0.34402	93641.80646	2788.77688	75.11968	-22399.25943
0.34307	93566.82836	2787.77688	74.97810	-22427.96244
0.34212	93491.99114	2786.77688	74.83723	-22456.54144
0.34117	93417.29407	2785.77688	74.69706	-22484.99708
0.34023	93342.73647	2784.77688	74.55760	-22513.33002
0.33929	93268.31764	2783.77688	74.41883	-22541.54092
0.33835	93194.03689	2782.77688	74.28075	-22569.63043
0.33742	93119.89352	2781.77688	74.14336	-22597.59919
0.33649	93045.88687	2780.77688	74.00665	-22625.44785
0.33556	92972.01624	2779.77688	73.87062	-22653.17704
0.33464	92898.28098	2778.77688	73.73527	-22680.78739
0.33372	92824.68039	2777.77688	73.60058	-22708.27955
0.33280	92751.21383	2776.77688	73.46656	-22735.65413
0.33189	92677.88063	2775.77688	73.33320	-22762.91176
0.33098	92604.68013	2774.77688	73.20050	-22790.05305
0.33007	92531.61168	2773.77688	73.06845	-22817.07862
0.32917	92458.67463	2772.77688	72.93705	-22843.98908
0.32827	92385.86833	2771.77688	72.80630	-22870.78504
0.32737	92313.19214	2770.77688	72.67618	-22897.46710
0.32648	92240.64543	2769.77688	72.54671	-22924.03585
0.32559	92168.22757	2768.77688	72.41786	-22950.49190
0.32470	92095.93792	2767.77688	72.28965	-22976.83584
0.32382	92023.77586	2766.77688	72.16206	-23003.06825
0.32294	91951.74076	2765.77688	72.03509	-23029.18972
0.32206	91879.83202	2764.77688	71.90875	-23055.20084
0.32118	91808.04901	2763.77688	71.78301	-23081.10216
0.32031	91736.39112	2762.77688	71.65788	-23106.89428
0.31944	91664.85776	2761.77688	71.53336	-23132.57776
0.31858	91593.44831	2760.77688	71.40945	-23158.15317
0.31772	91522.16218	2759.77688	71.28613	-23183.62107
0.31686	91450.99878	2758.77688	71.16341	-23208.98202
0.31600	91379.95750	2757.77688	71.04127	-23234.23658
0.31515	91309.03777	2756.77688	70.91973	-23259.38530
0.31430	91238.23900	2755.77688	70.79877	-23284.42872
0.31345	91167.56061	2754.77688	70.67839	-23309.36741
0.31261	91097.00202	2753.77688	70.55859	-23334.20188
0.31177	91026.56266	2752.77688	70.43936	-23358.93270
0.31093	90956.24195	2751.77688	70.32070	-23383.56039
0.31009	90886.03934	2750.77688	70.20261	-23408.08549
0.30926	90815.95425	2749.77688	70.08508	-23432.50852
0.30843	90745.98614	2748.77688	69.96812	-23456.83001
0.30760	90676.13443	2747.77688	69.85170	-23481.05049
0.30678	90606.39859	2746.77688	69.73585	-23505.17048
0.30596	90536.77805	2745.77688	69.62054	-23529.19049
0.30514	90467.27228	2744.77688	69.50577	-23553.11103
0.30433	90397.88073	2743.77688	69.39155	-23576.93262
0.30352	90328.60285	2742.77688	69.27787	-23600.65576
0.30271	90259.43813	2741.77688	69.16473	-23624.28096
0.30190	90190.38601	2740.77688	69.05212	-23647.80872
0.30110	90121.44597	2739.77688	68.94004	-23671.23954
0.30029	90052.61749	2738.77688	68.82848	-23694.57391
0.29950	89983.90003	2737.77688	68.71745	-23717.81232
0.29870	89915.29309	2736.77688	68.60694	-23740.95528
0.29791	89846.79614	2735.77688	68.49695	-23764.00325
0.29712	89778.40867	2734.77688	68.38747	-23786.95672
0.29633	89710.13016	2733.77688	68.27851	-23809.81618
0.29555	89641.96011	2732.77688	68.17005	-23832.58211
0.29476	89573.89802	2731.77688	68.06209	-23855.25497
0.29399	89505.94338	2730.77688	67.95464	-23877.83524
0.29321	89438.09569	2729.77688	67.84769	-23900.32339
0.29243	89370.35445	2728.77688	67.74123	-23922.71989
0.29166	89302.71918	2727.77688	67.63527	-23945.02520
0.29089	89235.18939	2726.77688	67.52980	-23967.23977
