Mole fraction of liquid	Heat per mole [J]	Temperature [K]	Apparent heat capacity per mole [J/K]	Latent heat per mole [J]
1.00000	1.37154E5	3180.30886	57.92241	0.00000
0.99997	1.37149E5	3180.21324	57.92241	-1.09366
0.99506	1.36899E5	3179.21324	250.18886	-194.93841
0.99017	1.36650E5	3178.21324	248.70140	-387.36233
0.98532	1.36403E5	3177.21324	247.22735	-578.37837
0.98051	1.36157E5	3176.21324	245.76656	-767.99937
0.97572	1.35913E5	3175.21324	244.31890	-956.23802
0.97097	1.35670E5	3174.21324	242.88420	-1143.10685
0.96625	1.35428E5	3173.21324	241.46235	-1328.61829
0.96156	1.35188E5	3172.21324	240.05318	-1512.78461
0.95690	1.34950E5	3171.21324	238.65658	-1695.61794
0.95227	1.34712E5	3170.21324	237.27240	-1877.13030
0.94768	1.34477E5	3169.21324	235.90051	-2057.33357
0.94311	1.34242E5	3168.21324	234.54078	-2236.23951
0.93858	1.34009E5	3167.21324	233.19308	-2413.85973
0.93407	1.33777E5	3166.21324	231.85727	-2590.20574
0.92960	1.33546E5	3165.21324	230.53323	-2765.28891
0.92515	1.33317E5	3164.21324	229.22084	-2939.12050
0.92074	1.33089E5	3163.21324	227.91998	-3111.71164
0.91635	1.32863E5	3162.21324	226.63051	-3283.07335
0.91199	1.32637E5	3161.21324	225.35232	-3453.21652
0.90766	1.32413E5	3160.21324	224.08528	-3622.15194
0.90336	1.32190E5	3159.21324	222.82929	-3789.89028
0.89908	1.31969E5	3158.21324	221.58423	-3956.44208
0.89484	1.31748E5	3157.21324	220.34997	-4121.81779
0.89062	1.31529E5	3156.21324	219.12641	-4286.02774
0.88643	1.31311E5	3155.21324	217.91343	-4449.08215
0.88226	1.31095E5	3154.21324	216.71092	-4610.99114
0.87813	1.30879E5	3153.21324	215.51878	-4771.76472
0.87402	1.30665E5	3152.21324	214.33690	-4931.41279
0.86993	1.30452E5	3151.21324	213.16516	-5089.94515
0.86587	1.30240E5	3150.21324	212.00346	-5247.37149
0.86184	1.30029E5	3149.21324	210.85170	-5403.70142
0.85784	1.29819E5	3148.21324	209.70978	-5558.94443
0.85386	1.29611E5	3147.21324	208.57759	-5713.10992
0.84990	1.29403E5	3146.21324	207.45504	-5866.20718
0.84597	1.29197E5	3145.21324	206.34202	-6018.24543
0.84207	1.28991E5	3144.21324	205.23843	-6169.23376
0.83818	1.28787E5	3143.21324	204.14419	-6319.18120
0.83433	1.28584E5	3142.21324	203.05918	-6468.09666
0.83050	1.28382E5	3141.21324	201.98333	-6615.98898
0.82669	1.28181E5	3140.21324	200.91653	-6762.86689
0.82291	1.27982E5	3139.21324	199.85870	-6908.73904
0.81915	1.27783E5	3138.21324	198.80973	-7053.61400
0.81541	1.27585E5	3137.21324	197.76955	-7197.50023
0.81170	1.27388E5	3136.21324	196.73806	-7340.40612
0.80801	1.27192E5	3135.21324	195.71518	-7482.33998
0.80434	1.26998E5	3134.21324	194.70081	-7623.31002
0.80070	1.26804E5	3133.21324	193.69488	-7763.32437
0.79708	1.26611E5	3132.21324	192.69729	-7902.39109
0.79348	1.26420E5	3131.21324	191.70796	-8040.51815
0.78990	1.26229E5	3130.21324	190.72682	-8177.71343
0.78635	1.26039E5	3129.21324	189.75377	-8313.98475
0.78282	1.25850E5	3128.21324	188.78874	-8449.33984
0.77931	1.25663E5	3127.21324	187.83165	-8583.78634
0.77582	1.25476E5	3126.21324	186.88241	-8717.33184
0.77235	1.25290E5	3125.21324	185.94096	-8849.98384
0.76890	1.25105E5	3124.21324	185.00720	-8981.74977
0.76548	1.24921E5	3123.21324	184.08108	-9112.63697
0.76207	1.24737E5	3122.21324	183.16250	-9242.65273
0.75869	1.24555E5	3121.21324	182.25140	-9371.80425
0.75533	1.24374E5	3120.21324	181.34770	-9500.09867
0.75198	1.24193E5	3119.21324	180.45133	-9627.54304
0.74866	1.24014E5	3118.21324	179.56222	-9754.14438
0.74536	1.23835E5	3117.21324	178.68030	-9879.90960
0.74208	1.23657E5	3116.21324	177.80549	-10004.84556
0.73881	1.23480E5	3115.21324	176.93773	-10128.95904
0.73557	1.23304E5	3114.21324	176.07694	-10252.25678
0.73235	1.23129E5	3113.21324	175.22307	-10374.74543
0.72914	1.22955E5	3112.21324	174.37603	-10496.43158
0.72596	1.22781E5	3111.21324	173.53577	-10617.32176
0.72279	1.22609E5	3110.21324	172.70222	-10737.42243
0.71964	1.22437E5	3109.21324	171.87532	-10856.73999
0.71651	1.22266E5	3108.21324	171.05500	-10975.28079
0.71340	1.22095E5	3107.21324	170.24119	-11093.05110
0.71031	1.21926E5	3106.21324	169.43384	-11210.05713
0.70724	1.21757E5	3105.21324	168.63288	-11326.30504
0.70418	1.21589E5	3104.21324	167.83826	-11441.80093
0.70115	1.21422E5	3103.21324	167.04990	-11556.55084
0.69813	1.21256E5	3102.21324	166.26775	-11670.56075
0.69513	1.21091E5	3101.21324	165.49175	-11783.83657
0.69214	1.20926E5	3100.21324	164.72185	-11896.38418
0.68918	1.20762E5	3099.21324	163.95798	-12008.20939
0.68623	1.20599E5	3098.21324	163.20009	-12119.31794
0.68329	1.20436E5	3097.21324	162.44812	-12229.71553
0.68038	1.20275E5	3096.21324	161.70201	-12339.40782
0.67748	1.20114E5	3095.21324	160.96171	-12448.40038
0.67460	1.19953E5	3094.21324	160.22716	-12556.69877
0.67174	1.19794E5	3093.21324	159.49832	-12664.30845
0.66889	1.19635E5	3092.21324	158.77512	-12771.23488
0.66606	1.19477E5	3091.21324	158.05751	-12877.48342
0.66324	1.19320E5	3090.21324	157.34544	-12983.05941
0.66044	1.19163E5	3089.21324	156.63887	-13087.96814
0.65766	1.19007E5	3088.21324	155.93772	-13192.21482
0.65489	1.18852E5	3087.21324	155.24197	-13295.80464
0.65214	1.18697E5	3086.21324	154.55155	-13398.74274
0.64941	1.18544E5	3085.21324	153.86642	-13501.03421
0.64669	1.18390E5	3084.21324	153.18652	-13602.68407
0.64398	1.18238E5	3083.21324	152.51182	-13703.69732
0.64129	1.18086E5	3082.21324	151.84225	-13804.07890
0.63862	1.17935E5	3081.21324	151.17778	-13903.83371
0.63596	1.17784E5	3080.21324	150.51835	-14002.96660
0.63332	1.17634E5	3079.21324	149.86393	-14101.48239
0.63069	1.17485E5	3078.21324	149.21445	-14199.38583
0.62808	1.17337E5	3077.21324	148.56989	-14296.68164
0.62548	1.17189E5	3076.21324	147.93019	-14393.37450
0.62289	1.17041E5	3075.21324	147.29530	-14489.46904
0.62032	1.16895E5	3074.21324	146.66520	-14584.96985
0.61777	1.16749E5	3073.21324	146.03982	-14679.88148
0.61523	1.16603E5	3072.21324	145.41913	-14774.20843
0.61270	1.16458E5	3071.21324	144.80308	-14867.95517
0.61019	1.16314E5	3070.21324	144.19164	-14961.12611
0.60769	1.16171E5	3069.21324	143.58476	-15053.72565
0.60520	1.16028E5	3068.21324	142.98240	-15145.75813
0.60273	1.15885E5	3067.21324	142.38452	-15237.22785
0.60028	1.15744E5	3066.21324	141.79107	-15328.13907
0.59783	1.15602E5	3065.21324	141.20203	-15418.49603
0.59540	1.15462E5	3064.21324	140.61734	-15508.30290
0.59298	1.15322E5	3063.21324	140.03697	-15597.56384
0.59058	1.15182E5	3062.21324	139.46089	-15686.28297
0.58819	1.15043E5	3061.21324	138.88904	-15774.46434
0.58581	1.14905E5	3060.21324	138.32140	-15862.11201
0.58345	1.14767E5	3059.21324	137.75793	-15949.22998
0.58110	1.14630E5	3058.21324	137.19859	-16035.82221
0.57876	1.14493E5	3057.21324	136.64334	-16121.89263
0.57643	1.14357E5	3056.21324	136.09215	-16207.44514
0.57412	1.14222E5	3055.21324	135.54498	-16292.48360
0.57182	1.14087E5	3054.21324	135.00179	-16377.01183
0.56953	1.13952E5	3053.21324	134.46255	-16461.03363
0.56726	1.13818E5	3052.21324	133.92723	-16544.55276
0.56499	1.13685E5	3051.21324	133.39579	-16627.57293
0.56274	1.13552E5	3050.21324	132.86819	-16710.09784
0.56050	1.13420E5	3049.21324	132.34441	-16792.13116
0.55827	1.13288E5	3048.21324	131.82440	-16873.67650
0.55606	1.13157E5	3047.21324	131.30814	-16954.73747
0.55386	1.13026E5	3046.21324	130.79560	-17035.31762
0.55166	1.12896E5	3045.21324	130.28673	-17115.42049
0.54948	1.12766E5	3044.21324	129.78151	-17195.04958
0.54732	1.12637E5	3043.21324	129.27991	-17274.20835
0.54516	1.12508E5	3042.21324	128.78189	-17352.90026
0.54301	1.12379E5	3041.21324	128.28743	-17431.12869
0.54088	1.12252E5	3040.21324	127.79649	-17508.89705
0.53876	1.12124E5	3039.21324	127.30904	-17586.20867
0.53665	1.11998E5	3038.21324	126.82506	-17663.06688
0.53455	1.11871E5	3037.21324	126.34450	-17739.47497
0.53246	1.11745E5	3036.21324	125.86735	-17815.43620
0.53038	1.11620E5	3035.21324	125.39358	-17890.95381
0.52831	1.11495E5	3034.21324	124.92314	-17966.03101
0.52626	1.11371E5	3033.21324	124.45603	-18040.67097
0.52421	1.11247E5	3032.21324	123.99219	-18114.87685
0.52218	1.11123E5	3031.21324	123.53162	-18188.65177
0.52015	1.11000E5	3030.21324	123.07428	-18261.99883
0.51814	1.10877E5	3029.21324	122.62015	-18334.92109
0.51614	1.10755E5	3028.21324	122.16919	-18407.42162
0.51414	1.10633E5	3027.21324	121.72138	-18479.50342
0.51216	1.10512E5	3026.21324	121.27669	-18551.16949
0.51019	1.10391E5	3025.21324	120.83510	-18622.42279
0.50823	1.10271E5	3024.21324	120.39657	-18693.26627
0.50628	1.10151E5	3023.21324	119.96109	-18763.70284
0.50433	1.10031E5	3022.21324	119.52863	-18833.73540
0.50240	1.09912E5	3021.21324	119.09916	-18903.36681
0.50048	1.09794E5	3020.21324	118.67266	-18972.59991
0.49857	1.09675E5	3019.21324	118.24910	-19041.43754
0.49667	1.09558E5	3018.21324	117.82846	-19109.88247
0.49478	1.09440E5	3017.21324	117.41071	-19177.93749
0.49289	1.09323E5	3016.21324	116.99584	-19245.60534
0.49102	1.09207E5	3015.21324	116.58380	-19312.88874
0.48916	1.09090E5	3014.21324	116.17459	-19379.79041
0.48730	1.08975E5	3013.21324	115.76817	-19446.31301
0.48546	1.08859E5	3012.21324	115.36453	-19512.45920
0.48362	1.08744E5	3011.21324	114.96364	-19578.23163
0.48180	1.08630E5	3010.21324	114.56548	-19643.63289
0.47998	1.08516E5	3009.21324	114.17002	-19708.66559
0.47817	1.08402E5	3008.21324	113.77725	-19773.33230
0.47637	1.08288E5	3007.21324	113.38714	-19837.63555
0.47459	1.08175E5	3006.21324	112.99967	-19901.57788
0.47281	1.08063E5	3005.21324	112.61481	-19965.16179
0.47103	1.07951E5	3004.21324	112.23255	-20028.38977
0.46927	1.07839E5	3003.21324	111.85287	-20091.26428
0.46752	1.07727E5	3002.21324	111.47574	-20153.78777
0.46577	1.07616E5	3001.21324	111.10114	-20215.96266
0.46404	1.07505E5	3000.21324	110.72905	-20277.79135
0.46231	1.07395E5	2999.21324	110.35946	-20339.27623
0.46059	1.07285E5	2998.21324	109.99233	-20400.41966
0.45888	1.07175E5	2997.21324	109.62766	-20461.22399
0.45718	1.07066E5	2996.21324	109.26542	-20521.69154
0.45548	1.06957E5	2995.21324	108.90558	-20581.82462
0.45380	1.06849E5	2994.21324	108.54814	-20641.62551
0.45212	1.06741E5	2993.21324	108.19307	-20701.09649
0.45045	1.06633E5	2992.21324	107.84036	-20760.23981
0.44879	1.06525E5	2991.21324	107.48998	-20819.05770
0.44714	1.06418E5	2990.21324	107.14191	-20877.55237
0.44550	1.06311E5	2989.21324	106.79614	-20935.72602
0.44386	1.06205E5	2988.21324	106.45264	-20993.58083
0.44223	1.06099E5	2987.21324	106.11141	-21051.11896
0.44061	1.05993E5	2986.21324	105.77242	-21108.34254
0.43900	1.05887E5	2985.21324	105.43565	-21165.25372
0.43740	1.05782E5	2984.21324	105.10109	-21221.85459
0.43580	1.05678E5	2983.21324	104.76871	-21278.14725
0.43421	1.05573E5	2982.21324	104.43850	-21334.13377
0.43263	1.05469E5	2981.21324	104.11045	-21389.81621
0.43106	1.05365E5	2980.21324	103.78454	-21445.19662
0.42949	1.05262E5	2979.21324	103.46074	-21500.27701
0.42793	1.05159E5	2978.21324	103.13904	-21555.05940
0.42638	1.05056E5	2977.21324	102.81944	-21609.54578
0.42484	1.04953E5	2976.21324	102.50189	-21663.73813
0.42330	1.04851E5	2975.21324	102.18641	-21717.63841
0.42178	1.04749E5	2974.21324	101.87296	-21771.24856
0.42026	1.04648E5	2973.21324	101.56152	-21824.57052
0.41874	1.04546E5	2972.21324	101.25210	-21877.60620
0.41723	1.04446E5	2971.21324	100.94466	-21930.35750
0.41574	1.04345E5	2970.21324	100.63920	-21982.82630
0.41424	1.04245E5	2969.21324	100.33569	-22035.01448
0.41276	1.04145E5	2968.21324	100.03412	-22086.92389
0.41128	1.04045E5	2967.21324	99.73448	-22138.55637
0.40981	1.03945E5	2966.21324	99.43676	-22189.91375
0.40834	1.03846E5	2965.21324	99.14093	-22240.99783
0.40689	1.03747E5	2964.21324	98.84698	-22291.81042
0.40544	1.03649E5	2963.21324	98.55490	-22342.35330
0.40399	1.03551E5	2962.21324	98.26468	-22392.62824
0.40256	1.03453E5	2961.21324	97.97629	-22442.63700
0.40113	1.03355E5	2960.21324	97.68973	-22492.38131
0.39970	1.03257E5	2959.21324	97.40498	-22541.86290
0.39829	1.03160E5	2958.21324	97.12202	-22591.08349
0.39688	1.03064E5	2957.21324	96.84085	-22640.04479
0.39547	1.02967E5	2956.21324	96.56144	-22688.74847
0.39408	1.02871E5	2955.21324	96.28379	-22737.19622
0.39269	1.02775E5	2954.21324	96.00788	-22785.38970
0.39130	1.02679E5	2953.21324	95.73371	-22833.33055
0.38993	1.02583E5	2952.21324	95.46124	-22881.02041
0.38856	1.02488E5	2951.21324	95.19048	-22928.46091
0.38719	1.02393E5	2950.21324	94.92140	-22975.65366
0.38583	1.02299E5	2949.21324	94.65401	-23022.60025
0.38448	1.02204E5	2948.21324	94.38827	-23069.30228
0.38313	1.02110E5	2947.21324	94.12419	-23115.76132
0.38180	1.02016E5	2946.21324	93.86174	-23161.97892
0.38046	1.01923E5	2945.21324	93.60092	-23207.95665
0.37913	1.01829E5	2944.21324	93.34171	-23253.69604
0.37781	1.01736E5	2943.21324	93.08411	-23299.19861
0.37650	1.01643E5	2942.21324	92.82809	-23344.46588
0.37519	1.01551E5	2941.21324	92.57365	-23389.49936
0.37389	1.01459E5	2940.21324	92.32077	-23434.30054
0.37259	1.01367E5	2939.21324	92.06945	-23478.87090
0.37130	1.01275E5	2938.21324	91.81967	-23523.21190
0.37001	1.01183E5	2937.21324	91.57142	-23567.32501
0.36873	1.01092E5	2936.21324	91.32469	-23611.21168
0.36746	1.01001E5	2935.21324	91.07946	-23654.87334
0.36619	1.00910E5	2934.21324	90.83573	-23698.31141
0.36493	1.00819E5	2933.21324	90.59348	-23741.52732
0.36367	1.00729E5	2932.21324	90.35271	-23784.52246
0.36242	1.00639E5	2931.21324	90.11340	-23827.29823
0.36118	1.00549E5	2930.21324	89.87554	-23869.85601
0.35994	1.00459E5	2929.21324	89.63913	-23912.19718
0.35870	1.00370E5	2928.21324	89.40414	-23954.32309
0.35747	1.00281E5	2927.21324	89.17057	-23996.23511
0.35625	1.00192E5	2926.21324	88.93841	-24037.93457
0.35503	1.00103E5	2925.21324	88.70765	-24079.42281
0.35382	1.00015E5	2924.21324	88.47828	-24120.70114
0.35261	99926.35393	2923.21324	88.25028	-24161.77088
0.35141	99838.33028	2922.21324	88.02365	-24202.63334
0.35022	99750.53190	2921.21324	87.79838	-24243.28980
0.34903	99662.95744	2920.21324	87.57446	-24283.74155
0.34784	99575.60556	2919.21324	87.35188	-24323.98987
0.34666	99488.47494	2918.21324	87.13062	-24364.03601
0.34549	99401.56426	2917.21324	86.91068	-24403.88124
0.34432	99314.87220	2916.21324	86.69205	-24443.52679
0.34315	99228.39748	2915.21324	86.47472	-24482.97391
0.34199	99142.13880	2914.21324	86.25868	-24522.22382
0.34084	99056.09489	2913.21324	86.04392	-24561.27775
0.33969	98970.26446	2912.21324	85.83043	-24600.13689
0.33854	98884.64626	2911.21324	85.61820	-24638.80246
0.33741	98799.23904	2910.21324	85.40722	-24677.27565
0.33627	98714.04155	2909.21324	85.19749	-24715.55763
0.33514	98629.05256	2908.21324	84.98899	-24753.64958
0.33402	98544.27085	2907.21324	84.78171	-24791.55267
0.33290	98459.69519	2906.21324	84.57566	-24829.26806
0.33178	98375.32438	2905.21324	84.37081	-24866.79689
0.33067	98291.15723	2904.21324	84.16716	-24904.14031
0.32957	98207.19253	2903.21324	83.96470	-24941.29945
0.32847	98123.42911	2902.21324	83.76342	-24978.27543
0.32737	98039.86580	2901.21324	83.56331	-25015.06936
0.32628	97956.50143	2900.21324	83.36437	-25051.68237
0.32520	97873.33485	2899.21324	83.16659	-25088.11554
0.32412	97790.36490	2898.21324	82.96995	-25124.36997
0.32304	97707.59044	2897.21324	82.77445	-25160.44674
0.32197	97625.01035	2896.21324	82.58009	-25196.34693
0.32090	97542.62350	2895.21324	82.38685	-25232.07161
0.31984	97460.42878	2894.21324	82.19472	-25267.62184
0.31878	97378.42507	2893.21324	82.00371	-25302.99867
0.31773	97296.61128	2892.21324	81.81379	-25338.20315
0.31668	97214.98631	2891.21324	81.62497	-25373.23632
0.31563	97133.54908	2890.21324	81.43723	-25408.09921
0.31459	97052.29852	2889.21324	81.25056	-25442.79283
0.31355	96971.23355	2888.21324	81.06497	-25477.31821
0.31252	96890.35311	2887.21324	80.88044	-25511.67636
0.31150	96809.65615	2886.21324	80.69696	-25545.86828
0.31047	96729.14163	2885.21324	80.51453	-25579.89496
0.30946	96648.80849	2884.21324	80.33313	-25613.75740
0.30844	96568.65572	2883.21324	80.15277	-25647.45656
0.30743	96488.68228	2882.21324	79.97344	-25680.99343
0.30643	96408.88716	2881.21324	79.79512	-25714.36897
0.30542	96329.26935	2880.21324	79.61781	-25747.58415
0.30443	96249.82784	2879.21324	79.44151	-25780.63990
0.30343	96170.56164	2878.21324	79.26620	-25813.53720
0.30245	96091.46975	2877.21324	79.09188	-25846.27696
0.30146	96012.55121	2876.21324	78.91855	-25878.86013
0.30048	95933.80502	2875.21324	78.74619	-25911.28763
0.29950	95855.23022	2874.21324	78.57480	-25943.56038
0.29853	95776.82586	2873.21324	78.40437	-25975.67930
0.29756	95698.59096	2872.21324	78.23489	-26007.64529
0.29660	95620.52459	2871.21324	78.06637	-26039.45926
0.29564	95542.62581	2870.21324	77.89879	-26071.12209
0.29468	95464.89367	2869.21324	77.73214	-26102.63468
0.29373	95387.32724	2868.21324	77.56642	-26133.99792
0.29278	95309.92561	2867.21324	77.40163	-26165.21267
0.29184	95232.68786	2866.21324	77.23775	-26196.27980
0.29090	95155.61307	2865.21324	77.07479	-26227.20019
0.28996	95078.70035	2864.21324	76.91272	-26257.97468
0.28903	95001.94879	2863.21324	76.75156	-26288.60414
0.28810	94925.35751	2862.21324	76.59128	-26319.08940
0.28717	94848.92561	2861.21324	76.43190	-26349.43131
0.28625	94772.65222	2860.21324	76.27339	-26379.63070
0.28533	94696.53647	2859.21324	76.11575	-26409.68840
0.28442	94620.57748	2858.21324	75.95899	-26439.60524
0.28351	94544.77440	2857.21324	75.80308	-26469.38203
0.28260	94469.12637	2856.21324	75.64803	-26499.01958
0.28170	94393.63254	2855.21324	75.49383	-26528.51870
0.28080	94318.29207	2854.21324	75.34048	-26557.88019
0.27990	94243.10411	2853.21324	75.18796	-26587.10485
0.27901	94168.06783	2852.21324	75.03627	-26616.19346
0.27812	94093.18242	2851.21324	74.88542	-26645.14682
0.27724	94018.44703	2850.21324	74.73538	-26673.96569
0.27636	93943.86087	2849.21324	74.58616	-26702.65086
0.27548	93869.42312	2848.21324	74.43775	-26731.20309
0.27460	93795.13297	2847.21324	74.29015	-26759.62315
0.27373	93720.98962	2846.21324	74.14335	-26787.91178
0.27287	93646.99229	2845.21324	73.99734	-26816.06976
0.27200	93573.14017	2844.21324	73.85212	-26844.09782
0.27114	93499.43249	2843.21324	73.70768	-26871.99671
0.27029	93425.86847	2842.21324	73.56402	-26899.76716
0.26943	93352.44734	2841.21324	73.42113	-26927.40992
0.26858	93279.16832	2840.21324	73.27902	-26954.92570
0.26774	93206.03066	2839.21324	73.13766	-26982.31523
0.26689	93133.03360	2838.21324	72.99707	-27009.57922
0.26605	93060.17638	2837.21324	72.85722	-27036.71840
0.26522	92987.45825	2836.21324	72.71813	-27063.73347
0.26438	92914.87848	2835.21324	72.57977	-27090.62513
0.26355	92842.43632	2834.21324	72.44216	-27117.39408
0.26273	92770.13105	2833.21324	72.30527	-27144.04102
0.26190	92697.96193	2832.21324	72.16912	-27170.56664
0.26108	92625.92824	2831.21324	72.03369	-27196.97162
0.26027	92554.02926	2830.21324	71.89898	-27223.25665
0.25945	92482.26428	2829.21324	71.76498	-27249.42239
0.25864	92410.63259	2828.21324	71.63169	-27275.46953
0.25784	92339.13348	2827.21324	71.49911	-27301.39872
0.25703	92267.76626	2826.21324	71.36722	-27327.21063
0.25623	92196.53023	2825.21324	71.23603	-27352.90593
0.25543	92125.42470	2824.21324	71.10553	-27378.48525
0.25464	92054.44898	2823.21324	70.97572	-27403.94926
0.25385	91983.60239	2822.21324	70.84659	-27429.29860
0.25306	91912.88425	2821.21324	70.71814	-27454.53391
0.25227	91842.29390	2820.21324	70.59035	-27479.65582
0.25149	91771.83066	2819.21324	70.46324	-27504.66498
0.25071	91701.49386	2818.21324	70.33679	-27529.56200
0.24993	91631.28286	2817.21324	70.21100	-27554.34751
0.24916	91561.19699	2816.21324	70.08587	-27579.02214
0.24839	91491.23560	2815.21324	69.96139	-27603.58649
0.24762	91421.39805	2814.21324	69.83755	-27628.04119
0.24686	91351.68368	2813.21324	69.71436	-27652.38684
0.24610	91282.09188	2812.21324	69.59181	-27676.62404
0.24534	91212.62199	2811.21324	69.46989	-27700.75340
0.24458	91143.27339	2810.21324	69.34860	-27724.77550
0.24383	91074.04545	2809.21324	69.22794	-27748.69095
0.24308	91004.93755	2808.21324	69.10790	-27772.50034
0.24233	90935.94908	2807.21324	68.98848	-27796.20424
0.24159	90867.07941	2806.21324	68.86967	-27819.80323
0.24084	90798.32794	2805.21324	68.75147	-27843.29791
0.24011	90729.69406	2804.21324	68.63388	-27866.68883
0.23937	90661.17717	2803.21324	68.51689	-27889.97657
0.23864	90592.77667	2802.21324	68.40050	-27913.16170
0.23791	90524.49196	2801.21324	68.28471	-27936.24478
0.23718	90456.32246	2800.21324	68.16950	-27959.22636
