Mole fraction of liquid	Heat per mole [J]	Temperature [K]	Apparent heat capacity per mole [J/K]	Latent heat per mole [J]
1.00000	1.44026E5	3301.78743	63.29715	0.00000
0.99996	1.44020E5	3301.69180	63.29715	-1.51607
0.99358	1.43693E5	3300.69180	327.10466	-270.28740
0.98724	1.43369E5	3299.69180	324.47210	-536.52022
0.98097	1.43047E5	3298.69180	321.87039	-800.24456
0.97475	1.42727E5	3297.69180	319.29908	-1061.49003
0.96859	1.42411E5	3296.69180	316.75776	-1320.28581
0.96248	1.42096E5	3295.69180	314.24598	-1576.66066
0.95642	1.41785E5	3294.69180	311.76335	-1830.64295
0.95042	1.41475E5	3293.69180	309.30944	-2082.26065
0.94446	1.41168E5	3292.69180	306.88386	-2331.54132
0.93856	1.40864E5	3291.69180	304.48620	-2578.51215
0.93272	1.40562E5	3290.69180	302.11609	-2823.19993
0.92692	1.40262E5	3289.69180	299.77313	-3065.63108
0.92117	1.39965E5	3288.69180	297.45695	-3305.83167
0.91548	1.39669E5	3287.69180	295.16718	-3543.82740
0.90983	1.39377E5	3286.69180	292.90346	-3779.64359
0.90423	1.39086E5	3285.69180	290.66542	-4013.30524
0.89868	1.38797E5	3284.69180	288.45271	-4244.83699
0.89317	1.38511E5	3283.69180	286.26498	-4474.26314
0.88771	1.38227E5	3282.69180	284.10190	-4701.60766
0.88230	1.37945E5	3281.69180	281.96312	-4926.89420
0.87694	1.37665E5	3280.69180	279.84832	-5150.14606
0.87162	1.37387E5	3279.69180	277.75716	-5371.38624
0.86634	1.37112E5	3278.69180	275.68934	-5590.63744
0.86111	1.36838E5	3277.69180	273.64452	-5807.92203
0.85593	1.36567E5	3276.69180	271.62242	-6023.26208
0.85078	1.36297E5	3275.69180	269.62270	-6236.67936
0.84568	1.36029E5	3274.69180	267.64509	-6448.19537
0.84063	1.35764E5	3273.69180	265.68927	-6657.83129
0.83561	1.35500E5	3272.69180	263.75497	-6865.60803
0.83064	1.35238E5	3271.69180	261.84189	-7071.54623
0.82571	1.34978E5	3270.69180	259.94974	-7275.66622
0.82081	1.34720E5	3269.69180	258.07826	-7477.98810
0.81596	1.34464E5	3268.69180	256.22717	-7678.53167
0.81115	1.34209E5	3267.69180	254.39620	-7877.31650
0.80638	1.33957E5	3266.69180	252.58509	-8074.36186
0.80165	1.33706E5	3265.69180	250.79356	-8269.68681
0.79695	1.33457E5	3264.69180	249.02138	-8463.31012
0.79229	1.33210E5	3263.69180	247.26827	-8655.25033
0.78768	1.32964E5	3262.69180	245.53401	-8845.52575
0.78310	1.32720E5	3261.69180	243.81833	-9034.15442
0.77855	1.32478E5	3260.69180	242.12099	-9221.15418
0.77404	1.32238E5	3259.69180	240.44177	-9406.54260
0.76957	1.31999E5	3258.69180	238.78042	-9590.33706
0.76514	1.31762E5	3257.69180	237.13672	-9772.55467
0.76074	1.31526E5	3256.69180	235.51043	-9953.21237
0.75637	1.31292E5	3255.69180	233.90134	-10132.32683
0.75204	1.31060E5	3254.69180	232.30922	-10309.91455
0.74775	1.30829E5	3253.69180	230.73385	-10485.99179
0.74349	1.30600E5	3252.69180	229.17503	-10660.57460
0.73926	1.30373E5	3251.69180	227.63253	-10833.67885
0.73507	1.30146E5	3250.69180	226.10616	-11005.32018
0.73091	1.29922E5	3249.69180	224.59571	-11175.51405
0.72678	1.29699E5	3248.69180	223.10098	-11344.27570
0.72268	1.29477E5	3247.69180	221.62177	-11511.62021
0.71862	1.29257E5	3246.69180	220.15788	-11677.56244
0.71459	1.29038E5	3245.69180	218.70912	-11842.11708
0.71059	1.28821E5	3244.69180	217.27530	-12005.29862
0.70662	1.28605E5	3243.69180	215.85624	-12167.12138
0.70268	1.28391E5	3242.69180	214.45174	-12327.59950
0.69877	1.28178E5	3241.69180	213.06164	-12486.74693
0.69489	1.27966E5	3240.69180	211.68574	-12644.57747
0.69104	1.27756E5	3239.69180	210.32388	-12801.10471
0.68723	1.27547E5	3238.69180	208.97588	-12956.34211
0.68344	1.27339E5	3237.69180	207.64156	-13110.30295
0.67968	1.27133E5	3236.69180	206.32077	-13263.00033
0.67595	1.26928E5	3235.69180	205.01333	-13414.44720
0.67224	1.26724E5	3234.69180	203.71908	-13564.65636
0.66857	1.26521E5	3233.69180	202.43786	-13713.64044
0.66492	1.26320E5	3232.69180	201.16950	-13861.41191
0.66130	1.26120E5	3231.69180	199.91386	-14007.98310
0.65771	1.25922E5	3230.69180	198.67077	-14153.36619
0.65414	1.25724E5	3229.69180	197.44009	-14297.57320
0.65061	1.25528E5	3228.69180	196.22167	-14440.61601
0.64710	1.25333E5	3227.69180	195.01535	-14582.50635
0.64361	1.25139E5	3226.69180	193.82099	-14723.25581
0.64015	1.24947E5	3225.69180	192.63845	-14862.87585
0.63672	1.24755E5	3224.69180	191.46758	-15001.37779
0.63331	1.24565E5	3223.69180	190.30824	-15138.77279
0.62993	1.24376E5	3222.69180	189.16031	-15275.07191
0.62657	1.24188E5	3221.69180	188.02363	-15410.28604
0.62324	1.24001E5	3220.69180	186.89808	-15544.42598
0.61993	1.23815E5	3219.69180	185.78352	-15677.50237
0.61664	1.23630E5	3218.69180	184.67982	-15809.52574
0.61339	1.23447E5	3217.69180	183.58686	-15940.50648
0.61015	1.23264E5	3216.69180	182.50451	-16070.45487
0.60694	1.23083E5	3215.69180	181.43264	-16199.38106
0.60375	1.22902E5	3214.69180	180.37113	-16327.29509
0.60058	1.22723E5	3213.69180	179.31986	-16454.20687
0.59744	1.22545E5	3212.69180	178.27870	-16580.12619
0.59432	1.22368E5	3211.69180	177.24755	-16705.06275
0.59122	1.22191E5	3210.69180	176.22628	-16829.02611
0.58815	1.22016E5	3209.69180	175.21477	-16952.02572
0.58510	1.21842E5	3208.69180	174.21292	-17074.07094
0.58207	1.21669E5	3207.69180	173.22061	-17195.17099
0.57906	1.21496E5	3206.69180	172.23773	-17315.33502
0.57607	1.21325E5	3205.69180	171.26418	-17434.57203
0.57310	1.21155E5	3204.69180	170.29984	-17552.89097
0.57016	1.20986E5	3203.69180	169.34461	-17670.30062
0.56724	1.20817E5	3202.69180	168.39838	-17786.80973
0.56433	1.20650E5	3201.69180	167.46106	-17902.42688
0.56145	1.20483E5	3200.69180	166.53253	-18017.16061
0.55859	1.20318E5	3199.69180	165.61271	-18131.01933
0.55575	1.20153E5	3198.69180	164.70148	-18244.01135
0.55292	1.19989E5	3197.69180	163.79876	-18356.14491
0.55012	1.19826E5	3196.69180	162.90444	-18467.42813
0.54734	1.19664E5	3195.69180	162.01843	-18577.86906
0.54458	1.19503E5	3194.69180	161.14063	-18687.47564
0.54183	1.19343E5	3193.69180	160.27097	-18796.25572
0.53911	1.19183E5	3192.69180	159.40933	-18904.21708
0.53640	1.19025E5	3191.69180	158.55564	-19011.36740
0.53371	1.18867E5	3190.69180	157.70979	-19117.71427
0.53105	1.18710E5	3189.69180	156.87172	-19223.26520
0.52840	1.18554E5	3188.69180	156.04132	-19328.02761
0.52577	1.18399E5	3187.69180	155.21851	-19432.00885
0.52315	1.18244E5	3186.69180	154.40322	-19535.21617
0.52056	1.18091E5	3185.69180	153.59534	-19637.65675
0.51798	1.17938E5	3184.69180	152.79481	-19739.33768
0.51542	1.17786E5	3183.69180	152.00154	-19840.26600
0.51288	1.17635E5	3182.69180	151.21546	-19940.44863
0.51035	1.17484E5	3181.69180	150.43647	-20039.89244
0.50784	1.17335E5	3180.69180	149.66451	-20138.60422
0.50535	1.17186E5	3179.69180	148.89949	-20236.59068
0.50288	1.17038E5	3178.69180	148.14135	-20333.85846
0.50042	1.16890E5	3177.69180	147.39000	-20430.41413
0.49798	1.16744E5	3176.69180	146.64537	-20526.26418
0.49556	1.16598E5	3175.69180	145.90739	-20621.41503
0.49315	1.16453E5	3174.69180	145.17599	-20715.87303
0.49076	1.16308E5	3173.69180	144.45109	-20809.64447
0.48838	1.16164E5	3172.69180	143.73262	-20902.73557
0.48602	1.16021E5	3171.69180	143.02052	-20995.15246
0.48368	1.15879E5	3170.69180	142.31471	-21086.90123
0.48135	1.15737E5	3169.69180	141.61513	-21177.98789
0.47903	1.15597E5	3168.69180	140.92172	-21268.41840
0.47674	1.15456E5	3167.69180	140.23439	-21358.19863
0.47445	1.15317E5	3166.69180	139.55310	-21447.33442
0.47219	1.15178E5	3165.69180	138.87777	-21535.83150
0.46993	1.15040E5	3164.69180	138.20834	-21623.69560
0.46770	1.14902E5	3163.69180	137.54475	-21710.93233
0.46547	1.14765E5	3162.69180	136.88694	-21797.54728
0.46327	1.14629E5	3161.69180	136.23484	-21883.54597
0.46107	1.14493E5	3160.69180	135.58840	-21968.93384
0.45889	1.14358E5	3159.69180	134.94755	-22053.71630
0.45673	1.14224E5	3158.69180	134.31224	-22137.89870
0.45458	1.14090E5	3157.69180	133.68240	-22221.48631
0.45244	1.13957E5	3156.69180	133.05799	-22304.48436
0.45031	1.13825E5	3155.69180	132.43894	-22386.89804
0.44820	1.13693E5	3154.69180	131.82519	-22468.73246
0.44611	1.13562E5	3153.69180	131.21669	-22549.99268
0.44403	1.13431E5	3152.69180	130.61340	-22630.68372
0.44196	1.13301E5	3151.69180	130.01524	-22710.81054
0.43990	1.13172E5	3150.69180	129.42217	-22790.37805
0.43786	1.13043E5	3149.69180	128.83414	-22869.39110
0.43583	1.12915E5	3148.69180	128.25109	-22947.85450
0.43381	1.12787E5	3147.69180	127.67297	-23025.77300
0.43181	1.12660E5	3146.69180	127.09974	-23103.15132
0.42982	1.12533E5	3145.69180	126.53133	-23179.99411
0.42784	1.12408E5	3144.69180	125.96771	-23256.30598
0.42587	1.12282E5	3143.69180	125.40882	-23332.09149
0.42392	1.12157E5	3142.69180	124.85461	-23407.35516
0.42198	1.12033E5	3141.69180	124.30504	-23482.10145
0.42005	1.11909E5	3140.69180	123.76006	-23556.33479
0.41813	1.11786E5	3139.69180	123.21961	-23630.05956
0.41623	1.11663E5	3138.69180	122.68367	-23703.28008
0.41433	1.11541E5	3137.69180	122.15217	-23776.00065
0.41245	1.11420E5	3136.69180	121.62508	-23848.22551
0.41058	1.11298E5	3135.69180	121.10234	-23919.95886
0.40872	1.11178E5	3134.69180	120.58392	-23991.20486
0.40688	1.11058E5	3133.69180	120.06978	-24061.96762
0.40504	1.10938E5	3132.69180	119.55986	-24132.25123
0.40322	1.10819E5	3131.69180	119.05413	-24202.05970
0.40141	1.10701E5	3130.69180	118.55255	-24271.39704
0.39961	1.10583E5	3129.69180	118.05506	-24340.26719
0.39782	1.10465E5	3128.69180	117.56164	-24408.67408
0.39604	1.10348E5	3127.69180	117.07224	-24476.62156
0.39427	1.10231E5	3126.69180	116.58683	-24544.11348
0.39251	1.10115E5	3125.69180	116.10535	-24611.15363
0.39077	1.10000E5	3124.69180	115.62778	-24677.74577
0.38903	1.09884E5	3123.69180	115.15407	-24743.89362
0.38731	1.09770E5	3122.69180	114.68418	-24809.60086
0.38559	1.09656E5	3121.69180	114.21809	-24874.87114
0.38389	1.09542E5	3120.69180	113.75574	-24939.70807
0.38220	1.09428E5	3119.69180	113.29711	-25004.11522
0.38051	1.09316E5	3118.69180	112.84215	-25068.09613
0.37884	1.09203E5	3117.69180	112.39084	-25131.65430
0.37718	1.09091E5	3116.69180	111.94313	-25194.79322
0.37552	1.08980E5	3115.69180	111.49899	-25257.51630
0.37388	1.08869E5	3114.69180	111.05839	-25319.82696
0.37225	1.08758E5	3113.69180	110.62128	-25381.72855
0.37062	1.08648E5	3112.69180	110.18765	-25443.22443
0.36901	1.08538E5	3111.69180	109.75744	-25504.31788
0.36740	1.08429E5	3110.69180	109.33064	-25565.01218
0.36581	1.08320E5	3109.69180	108.90720	-25625.31056
0.36422	1.08211E5	3108.69180	108.48710	-25685.21624
0.36265	1.08103E5	3107.69180	108.07029	-25744.73239
0.36108	1.07996E5	3106.69180	107.65676	-25803.86216
0.35952	1.07888E5	3105.69180	107.24647	-25862.60865
0.35798	1.07782E5	3104.69180	106.83938	-25920.97496
0.35644	1.07675E5	3103.69180	106.43548	-25978.96414
0.35491	1.07569E5	3102.69180	106.03471	-26036.57920
0.35339	1.07464E5	3101.69180	105.63707	-26093.82316
0.35187	1.07358E5	3100.69180	105.24251	-26150.69898
0.35037	1.07253E5	3099.69180	104.85101	-26207.20959
0.34888	1.07149E5	3098.69180	104.46253	-26263.35790
0.34739	1.07045E5	3097.69180	104.07706	-26319.14681
0.34591	1.06941E5	3096.69180	103.69456	-26374.57916
0.34445	1.06838E5	3095.69180	103.31500	-26429.65778
0.34299	1.06735E5	3094.69180	102.93835	-26484.38547
0.34154	1.06632E5	3093.69180	102.56459	-26538.76502
0.34009	1.06530E5	3092.69180	102.19370	-26592.79916
0.33866	1.06428E5	3091.69180	101.82564	-26646.49062
0.33723	1.06327E5	3090.69180	101.46038	-26699.84209
0.33581	1.06226E5	3089.69180	101.09790	-26752.85625
0.33440	1.06125E5	3088.69180	100.73818	-26805.53575
0.33300	1.06025E5	3087.69180	100.38119	-26857.88320
0.33161	1.05925E5	3086.69180	100.02690	-26909.90120
0.33022	1.05825E5	3085.69180	99.67529	-26961.59232
0.32884	1.05726E5	3084.69180	99.32634	-27012.95911
0.32747	1.05627E5	3083.69180	98.98001	-27064.00410
0.32611	1.05528E5	3082.69180	98.63629	-27114.72978
0.32476	1.05430E5	3081.69180	98.29514	-27165.13864
0.32341	1.05332E5	3080.69180	97.95656	-27215.23313
0.32207	1.05234E5	3079.69180	97.62051	-27265.01567
0.32074	1.05137E5	3078.69180	97.28696	-27314.48868
0.31941	1.05040E5	3077.69180	96.95591	-27363.65455
0.31810	1.04943E5	3076.69180	96.62732	-27412.51564
0.31679	1.04847E5	3075.69180	96.30116	-27461.07429
0.31549	1.04751E5	3074.69180	95.97743	-27509.33283
0.31419	1.04655E5	3073.69180	95.65610	-27557.29355
0.31290	1.04560E5	3072.69180	95.33714	-27604.95873
0.31162	1.04465E5	3071.69180	95.02053	-27652.33063
0.31035	1.04370E5	3070.69180	94.70626	-27699.41149
0.30908	1.04276E5	3069.69180	94.39429	-27746.20353
0.30782	1.04182E5	3068.69180	94.08462	-27792.70894
0.30657	1.04088E5	3067.69180	93.77722	-27838.92990
0.30533	1.03995E5	3066.69180	93.47206	-27884.86856
0.30409	1.03901E5	3065.69180	93.16913	-27930.52707
0.30286	1.03809E5	3064.69180	92.86842	-27975.90753
0.30163	1.03716E5	3063.69180	92.56989	-28021.01205
0.30041	1.03624E5	3062.69180	92.27353	-28065.84272
0.29920	1.03532E5	3061.69180	91.97932	-28110.40158
0.29800	1.03440E5	3060.69180	91.68723	-28154.69068
0.29680	1.03349E5	3059.69180	91.39727	-28198.71205
0.29561	1.03258E5	3058.69180	91.10939	-28242.46769
0.29442	1.03167E5	3057.69180	90.82359	-28285.95960
0.29324	1.03076E5	3056.69180	90.53984	-28329.18972
0.29207	1.02986E5	3055.69180	90.25813	-28372.16004
0.29091	1.02896E5	3054.69180	89.97844	-28414.87246
0.28975	1.02806E5	3053.69180	89.70075	-28457.32893
0.28859	1.02717E5	3052.69180	89.42504	-28499.53132
0.28745	1.02628E5	3051.69180	89.15130	-28541.48154
0.28631	1.02539E5	3050.69180	88.87951	-28583.18144
0.28517	1.02450E5	3049.69180	88.60965	-28624.63287
0.28404	1.02362E5	3048.69180	88.34170	-28665.83768
0.28292	1.02274E5	3047.69180	88.07566	-28706.79767
0.28180	1.02186E5	3046.69180	87.81149	-28747.51466
0.28069	1.02098E5	3045.69180	87.54919	-28787.99041
0.27959	1.02011E5	3044.69180	87.28874	-28828.22672
0.27849	1.01924E5	3043.69180	87.03012	-28868.22532
0.27740	1.01837E5	3042.69180	86.77331	-28907.98796
0.27631	1.01751E5	3041.69180	86.51831	-28947.51637
0.27523	1.01665E5	3040.69180	86.26509	-28986.81225
0.27415	1.01578E5	3039.69180	86.01365	-29025.87729
0.27308	1.01493E5	3038.69180	85.76395	-29064.71318
0.27202	1.01407E5	3037.69180	85.51600	-29103.32158
0.27096	1.01322E5	3036.69180	85.26977	-29141.70415
0.26991	1.01237E5	3035.69180	85.02525	-29179.86250
0.26886	1.01152E5	3034.69180	84.78242	-29217.79828
0.26782	1.01068E5	3033.69180	84.54127	-29255.51308
0.26678	1.00983E5	3032.69180	84.30179	-29293.00850
0.26575	1.00899E5	3031.69180	84.06396	-29330.28612
0.26473	1.00815E5	3030.69180	83.82777	-29367.34750
0.26370	1.00732E5	3029.69180	83.59321	-29404.19421
0.26269	1.00648E5	3028.69180	83.36025	-29440.82777
0.26168	1.00565E5	3027.69180	83.12888	-29477.24971
0.26068	1.00482E5	3026.69180	82.89910	-29513.46156
0.25968	1.00400E5	3025.69180	82.67089	-29549.46480
0.25868	1.00317E5	3024.69180	82.44424	-29585.26093
0.25769	1.00235E5	3023.69180	82.21912	-29620.85141
0.25671	1.00153E5	3022.69180	81.99554	-29656.23772
0.25573	1.00071E5	3021.69180	81.77347	-29691.42131
0.25476	99989.75671	3020.69180	81.55291	-29726.40360
0.25379	99908.42288	3019.69180	81.33383	-29761.18603
0.25282	99827.30664	3018.69180	81.11624	-29795.77000
0.25186	99746.40652	3017.69180	80.90011	-29830.15693
0.25091	99665.72108	3016.69180	80.68544	-29864.34819
0.24996	99585.24888	3015.69180	80.47221	-29898.34517
0.24902	99504.98847	3014.69180	80.26040	-29932.14924
0.24808	99424.93845	3013.69180	80.05002	-29965.76174
0.24714	99345.09741	3012.69180	79.84104	-29999.18403
0.24621	99265.46396	3011.69180	79.63346	-30032.41743
0.24529	99186.03670	3010.69180	79.42726	-30065.46326
0.24437	99106.81428	3009.69180	79.22243	-30098.32283
0.24345	99027.79532	3008.69180	79.01896	-30130.99745
0.24254	98948.97849	3007.69180	78.81683	-30163.48840
0.24163	98870.36244	3006.69180	78.61605	-30195.79696
0.24073	98791.94585	3005.69180	78.41659	-30227.92439
0.23983	98713.72739	3004.69180	78.21845	-30259.87195
0.23894	98635.70578	3003.69180	78.02161	-30291.64090
0.23805	98557.87971	3002.69180	77.82607	-30323.23245
0.23717	98480.24790	3001.69180	77.63181	-30354.64784
0.23629	98402.80907	3000.69180	77.43883	-30385.88829
0.23541	98325.56197	2999.69180	77.24710	-30416.95499
0.23454	98248.50533	2998.69180	77.05663	-30447.84915
0.23367	98171.63793	2997.69180	76.86740	-30478.57194
0.23281	98094.95852	2996.69180	76.67941	-30509.12455
0.23195	98018.46589	2995.69180	76.49263	-30539.50814
0.23110	97942.15882	2994.69180	76.30707	-30569.72387
0.23025	97866.03611	2993.69180	76.12271	-30599.77288
0.22940	97790.09657	2992.69180	75.93954	-30629.65632
0.22856	97714.33901	2991.69180	75.75756	-30659.37530
0.22772	97638.76226	2990.69180	75.57675	-30688.93096
0.22689	97563.36516	2989.69180	75.39710	-30718.32439
0.22606	97488.14656	2988.69180	75.21861	-30747.55671
0.22524	97413.10530	2987.69180	75.04126	-30776.62899
0.22442	97338.24025	2986.69180	74.86505	-30805.54234
0.22360	97263.55028	2985.69180	74.68996	-30834.29781
0.22279	97189.03429	2984.69180	74.51600	-30862.89649
0.22198	97114.69114	2983.69180	74.34314	-30891.33941
0.22117	97040.51976	2982.69180	74.17138	-30919.62765
0.22037	96966.51904	2981.69180	74.00072	-30947.76222
0.21957	96892.68790	2980.69180	73.83114	-30975.74417
0.21878	96819.02527	2979.69180	73.66263	-31003.57452
0.21799	96745.53009	2978.69180	73.49519	-31031.25428
0.21720	96672.20128	2977.69180	73.32880	-31058.78447
0.21642	96599.03782	2976.69180	73.16347	-31086.16608
0.21564	96526.03865	2975.69180	72.99917	-31113.40010
0.21487	96453.20274	2974.69180	72.83591	-31140.48752
0.21410	96380.52907	2973.69180	72.67367	-31167.42931
0.21333	96308.01663	2972.69180	72.51245	-31194.22644
0.21257	96235.66439	2971.69180	72.35223	-31220.87987
0.21181	96163.47138	2970.69180	72.19302	-31247.39056
0.21105	96091.43658	2969.69180	72.03480	-31273.75944
0.21030	96019.55902	2968.69180	71.87756	-31299.98746
0.20955	95947.83772	2967.69180	71.72130	-31326.07555
0.20880	95876.27171	2966.69180	71.56601	-31352.02463
0.20806	95804.86003	2965.69180	71.41168	-31377.83561
0.20732	95733.60173	2964.69180	71.25831	-31403.50940
0.20659	95662.49585	2963.69180	71.10588	-31429.04692
0.20586	95591.54145	2962.69180	70.95439	-31454.44904
0.20513	95520.73762	2961.69180	70.80384	-31479.71665
0.20440	95450.08341	2960.69180	70.65421	-31504.85065
0.20368	95379.57792	2959.69180	70.50549	-31529.85189
0.20296	95309.22022	2958.69180	70.35769	-31554.72125
0.20225	95239.00943	2957.69180	70.21080	-31579.45959
0.20154	95168.94463	2956.69180	70.06480	-31604.06776
0.20083	95099.02495	2955.69180	69.91969	-31628.54661
0.20013	95029.24949	2954.69180	69.77546	-31652.89698
0.19942	94959.61738	2953.69180	69.63211	-31677.11969
0.19873	94890.12775	2952.69180	69.48963	-31701.21558
0.19803	94820.77974	2951.69180	69.34801	-31725.18547
0.19734	94751.57250	2950.69180	69.20725	-31749.03018
0.19665	94682.50516	2949.69180	69.06734	-31772.75051
0.19597	94613.57689	2948.69180	68.92827	-31796.34725
0.19528	94544.78686	2947.69180	68.79004	-31819.82122
0.19460	94476.13422	2946.69180	68.65264	-31843.17320
0.19393	94407.61816	2945.69180	68.51606	-31866.40397
0.19326	94339.23786	2944.69180	68.38030	-31889.51430
0.19259	94270.99250	2943.69180	68.24536	-31912.50498
0.19192	94202.88129	2942.69180	68.11122	-31935.37677
0.19126	94134.90341	2941.69180	67.97788	-31958.13042
0.19060	94067.05808	2940.69180	67.84533	-31980.76670
0.18994	93999.34451	2939.69180	67.71357	-32003.28634
0.18928	93931.76192	2938.69180	67.58259	-32025.69010
0.18863	93864.30952	2937.69180	67.45239	-32047.97870
0.18798	93796.98656	2936.69180	67.32296	-32070.15289
0.18734	93729.79227	2935.69180	67.19430	-32092.21338
0.18669	93662.72588	2934.69180	67.06639	-32114.16090
0.18606	93595.78665	2933.69180	66.93923	-32135.99617
0.18542	93528.97382	2932.69180	66.81283	-32157.71988
0.18478	93462.28666	2931.69180	66.68716	-32179.33275
0.18415	93395.72443	2930.69180	66.56223	-32200.83548
0.18352	93329.28640	2929.69180	66.43803	-32222.22875
0.18290	93262.97184	2928.69180	66.31456	-32243.51327
0.18228	93196.78003	2927.69180	66.19181	-32264.68970
0.18166	93130.71026	2926.69180	66.06977	-32285.75874
0.18104	93064.76182	2925.69180	65.94844	-32306.72104
0.18042	92998.93401	2924.69180	65.82781	-32327.57729
0.17981	92933.22612	2923.69180	65.70789	-32348.32814
0.17920	92867.63746	2922.69180	65.58866	-32368.97425
0.17860	92802.16735	2921.69180	65.47011	-32389.51628
