Mole fraction of liquid	Heat per mole [J]	Temperature [K]	Apparent heat capacity per mole [J/K]	Latent heat per mole [J]
1.00000	1.43348E5	3300.21945	62.63025	0.00000
0.99996	1.43342E5	3300.12382	62.63025	-1.46381
0.99370	1.43024E5	3299.12382	318.60199	-260.79901
0.98749	1.42707E5	3298.12382	316.06003	-517.69405
0.98134	1.42394E5	3297.12382	313.54775	-772.17771
0.97524	1.42083E5	3296.12382	311.06473	-1024.27837
0.96919	1.41774E5	3295.12382	308.61056	-1274.02401
0.96319	1.41468E5	3294.12382	306.18483	-1521.44222
0.95725	1.41164E5	3293.12382	303.78713	-1766.56020
0.95136	1.40863E5	3292.12382	301.41709	-2009.40475
0.94552	1.40564E5	3291.12382	299.07430	-2250.00230
0.93973	1.40267E5	3290.12382	296.75840	-2488.37893
0.93399	1.39973E5	3289.12382	294.46900	-2724.56033
0.92830	1.39680E5	3288.12382	292.20574	-2958.57184
0.92266	1.39390E5	3287.12382	289.96826	-3190.43845
0.91707	1.39103E5	3286.12382	287.75620	-3420.18481
0.91153	1.38817E5	3285.12382	285.56922	-3647.83522
0.90603	1.38534E5	3284.12382	283.40696	-3873.41364
0.90058	1.38252E5	3283.12382	281.26908	-4096.94370
0.89517	1.37973E5	3282.12382	279.15527	-4318.44872
0.88982	1.37696E5	3281.12382	277.06517	-4537.95169
0.88450	1.37421E5	3280.12382	274.99849	-4755.47528
0.87923	1.37148E5	3279.12382	272.95488	-4971.04186
0.87401	1.36877E5	3278.12382	270.93405	-5184.67349
0.86883	1.36608E5	3277.12382	268.93569	-5396.39194
0.86369	1.36341E5	3276.12382	266.95949	-5606.21867
0.85860	1.36076E5	3275.12382	265.00515	-5814.17486
0.85354	1.35813E5	3274.12382	263.07238	-6020.28140
0.84853	1.35552E5	3273.12382	261.16090	-6224.55890
0.84356	1.35293E5	3272.12382	259.27041	-6427.02770
0.83864	1.35035E5	3271.12382	257.40064	-6627.70786
0.83375	1.34780E5	3270.12382	255.55132	-6826.61916
0.82890	1.34526E5	3269.12382	253.72216	-7023.78115
0.82409	1.34274E5	3268.12382	251.91291	-7219.21309
0.81933	1.34024E5	3267.12382	250.12331	-7412.93399
0.81460	1.33776E5	3266.12382	248.35308	-7604.96261
0.80991	1.33529E5	3265.12382	246.60199	-7795.31748
0.80525	1.33284E5	3264.12382	244.86977	-7984.01685
0.80064	1.33041E5	3263.12382	243.15618	-8171.07877
0.79606	1.32800E5	3262.12382	241.46098	-8356.52102
0.79152	1.32560E5	3261.12382	239.78393	-8540.36117
0.78701	1.32322E5	3260.12382	238.12479	-8722.61655
0.78255	1.32085E5	3259.12382	236.48333	-8903.30425
0.77811	1.31850E5	3258.12382	234.85933	-9082.44118
0.77372	1.31617E5	3257.12382	233.25255	-9260.04398
0.76935	1.31386E5	3256.12382	231.66277	-9436.12910
0.76503	1.31155E5	3255.12382	230.08979	-9610.71280
0.76073	1.30927E5	3254.12382	228.53337	-9783.81108
0.75647	1.30700E5	3253.12382	226.99331	-9955.43977
0.75225	1.30474E5	3252.12382	225.46941	-10125.61450
0.74806	1.30250E5	3251.12382	223.96144	-10294.35066
0.74390	1.30028E5	3250.12382	222.46922	-10461.66350
0.73977	1.29807E5	3249.12382	220.99255	-10627.56803
0.73567	1.29587E5	3248.12382	219.53122	-10792.07909
0.73161	1.29369E5	3247.12382	218.08504	-10955.21133
0.72758	1.29153E5	3246.12382	216.65383	-11116.97922
0.72358	1.28938E5	3245.12382	215.23739	-11277.39702
0.71961	1.28724E5	3244.12382	213.83554	-11436.47884
0.71567	1.28511E5	3243.12382	212.44809	-11594.23860
0.71177	1.28300E5	3242.12382	211.07488	-11750.69005
0.70789	1.28090E5	3241.12382	209.71571	-11905.84677
0.70404	1.27882E5	3240.12382	208.37042	-12059.72215
0.70022	1.27675E5	3239.12382	207.03883	-12212.32945
0.69643	1.27469E5	3238.12382	205.72077	-12363.68173
0.69267	1.27265E5	3237.12382	204.41608	-12513.79190
0.68894	1.27062E5	3236.12382	203.12459	-12662.67272
0.68524	1.26860E5	3235.12382	201.84614	-12810.33678
0.68156	1.26659E5	3234.12382	200.58057	-12956.79652
0.67791	1.26460E5	3233.12382	199.32773	-13102.06423
0.67429	1.26262E5	3232.12382	198.08744	-13246.15203
0.67070	1.26065E5	3231.12382	196.85958	-13389.07192
0.66713	1.25869E5	3230.12382	195.64397	-13530.83573
0.66359	1.25675E5	3229.12382	194.44048	-13671.45517
0.66008	1.25482E5	3228.12382	193.24896	-13810.94177
0.65659	1.25290E5	3227.12382	192.06925	-13949.30696
0.65313	1.25099E5	3226.12382	190.90123	-14086.56200
0.64970	1.24909E5	3225.12382	189.74475	-14222.71805
0.64629	1.24720E5	3224.12382	188.59967	-14357.78608
0.64290	1.24533E5	3223.12382	187.46585	-14491.77699
0.63954	1.24347E5	3222.12382	186.34316	-14624.70150
0.63621	1.24161E5	3221.12382	185.23147	-14756.57023
0.63290	1.23977E5	3220.12382	184.13064	-14887.39366
0.62961	1.23794E5	3219.12382	183.04055	-15017.18215
0.62635	1.23612E5	3218.12382	181.96107	-15145.94593
0.62311	1.23431E5	3217.12382	180.89207	-15273.69511
0.61990	1.23252E5	3216.12382	179.83343	-15400.43970
0.61671	1.23073E5	3215.12382	178.78503	-15526.18955
0.61354	1.22895E5	3214.12382	177.74675	-15650.95444
0.61039	1.22718E5	3213.12382	176.71847	-15774.74400
0.60727	1.22543E5	3212.12382	175.70007	-15897.56775
0.60417	1.22368E5	3211.12382	174.69143	-16019.43513
0.60109	1.22194E5	3210.12382	173.69244	-16140.35542
0.59804	1.22021E5	3209.12382	172.70300	-16260.33783
0.59500	1.21850E5	3208.12382	171.72298	-16379.39146
0.59199	1.21679E5	3207.12382	170.75229	-16497.52527
0.58900	1.21509E5	3206.12382	169.79080	-16614.74815
0.58603	1.21340E5	3205.12382	168.83842	-16731.06888
0.58308	1.21172E5	3204.12382	167.89505	-16846.49614
0.58016	1.21006E5	3203.12382	166.96056	-16961.03848
0.57725	1.20839E5	3202.12382	166.03488	-17074.70439
0.57436	1.20674E5	3201.12382	165.11788	-17187.50225
0.57150	1.20510E5	3200.12382	164.20948	-17299.44034
0.56865	1.20347E5	3199.12382	163.30958	-17410.52683
0.56582	1.20184E5	3198.12382	162.41808	-17520.76983
0.56302	1.20023E5	3197.12382	161.53488	-17630.17733
0.56023	1.19862E5	3196.12382	160.65990	-17738.75724
0.55746	1.19702E5	3195.12382	159.79302	-17846.51738
0.55472	1.19544E5	3194.12382	158.93418	-17953.46548
0.55199	1.19385E5	3193.12382	158.08327	-18059.60918
0.54928	1.19228E5	3192.12382	157.24021	-18164.95603
0.54659	1.19072E5	3191.12382	156.40490	-18269.51350
0.54391	1.18916E5	3190.12382	155.57727	-18373.28898
0.54126	1.18761E5	3189.12382	154.75721	-18476.28977
0.53862	1.18608E5	3188.12382	153.94466	-18578.52309
0.53601	1.18454E5	3187.12382	153.13953	-18679.99608
0.53340	1.18302E5	3186.12382	152.34173	-18780.71580
0.53082	1.18150E5	3185.12382	151.55118	-18880.68922
0.52826	1.18000E5	3184.12382	150.76781	-18979.92326
0.52571	1.17850E5	3183.12382	149.99153	-19078.42474
0.52318	1.17700E5	3182.12382	149.22226	-19176.20040
0.52067	1.17552E5	3181.12382	148.45993	-19273.25693
0.51817	1.17404E5	3180.12382	147.70447	-19369.60091
0.51569	1.17257E5	3179.12382	146.95578	-19465.23889
0.51323	1.17111E5	3178.12382	146.21381	-19560.17732
0.51078	1.16966E5	3177.12382	145.47848	-19654.42259
0.50835	1.16821E5	3176.12382	144.74972	-19747.98100
0.50594	1.16677E5	3175.12382	144.02745	-19840.85881
0.50354	1.16534E5	3174.12382	143.31160	-19933.06219
0.50116	1.16391E5	3173.12382	142.60211	-20024.59725
0.49880	1.16249E5	3172.12382	141.89890	-20115.47004
0.49645	1.16108E5	3171.12382	141.20191	-20205.68653
0.49411	1.15967E5	3170.12382	140.51107	-20295.25265
0.49179	1.15828E5	3169.12382	139.82631	-20384.17423
0.48949	1.15688E5	3168.12382	139.14757	-20472.45706
0.48720	1.15550E5	3167.12382	138.47479	-20560.10688
0.48493	1.15412E5	3166.12382	137.80790	-20647.12932
0.48267	1.15275E5	3165.12382	137.14683	-20733.53001
0.48043	1.15138E5	3164.12382	136.49153	-20819.31448
0.47820	1.15003E5	3163.12382	135.84194	-20904.48821
0.47598	1.14867E5	3162.12382	135.19799	-20989.05662
0.47378	1.14733E5	3161.12382	134.55962	-21073.02508
0.47160	1.14599E5	3160.12382	133.92677	-21156.39890
0.46942	1.14466E5	3159.12382	133.29939	-21239.18332
0.46727	1.14333E5	3158.12382	132.67742	-21321.38354
0.46512	1.14201E5	3157.12382	132.06081	-21403.00471
0.46299	1.14069E5	3156.12382	131.44948	-21484.05191
0.46088	1.13939E5	3155.12382	130.84340	-21564.53017
0.45877	1.13808E5	3154.12382	130.24250	-21644.44446
0.45669	1.13679E5	3153.12382	129.64673	-21723.79973
0.45461	1.13550E5	3152.12382	129.05604	-21802.60083
0.45255	1.13421E5	3151.12382	128.47037	-21880.85260
0.45050	1.13293E5	3150.12382	127.88968	-21958.55981
0.44846	1.13166E5	3149.12382	127.31390	-22035.72719
0.44644	1.13039E5	3148.12382	126.74299	-22112.35940
0.44443	1.12913E5	3147.12382	126.17691	-22188.46107
0.44243	1.12787E5	3146.12382	125.61559	-22264.03678
0.44044	1.12662E5	3145.12382	125.05899	-22339.09107
0.43847	1.12538E5	3144.12382	124.50707	-22413.62840
0.43651	1.12414E5	3143.12382	123.95976	-22487.65323
0.43456	1.12291E5	3142.12382	123.41704	-22561.16994
0.43263	1.12168E5	3141.12382	122.87884	-22634.18288
0.43070	1.12045E5	3140.12382	122.34513	-22706.69634
0.42879	1.11923E5	3139.12382	121.81585	-22778.71459
0.42689	1.11802E5	3138.12382	121.29097	-22850.24184
0.42500	1.11681E5	3137.12382	120.77043	-22921.28227
0.42313	1.11561E5	3136.12382	120.25420	-22991.83998
0.42126	1.11441E5	3135.12382	119.74223	-23061.91909
0.41941	1.11322E5	3134.12382	119.23448	-23131.52361
0.41757	1.11203E5	3133.12382	118.73090	-23200.65757
0.41574	1.11085E5	3132.12382	118.23145	-23269.32493
0.41392	1.10967E5	3131.12382	117.73609	-23337.52960
0.41211	1.10850E5	3130.12382	117.24478	-23405.27546
0.41031	1.10733E5	3129.12382	116.75749	-23472.56637
0.40853	1.10617E5	3128.12382	116.27416	-23539.40613
0.40675	1.10501E5	3127.12382	115.79476	-23605.79850
0.40499	1.10386E5	3126.12382	115.31925	-23671.74721
0.40323	1.10271E5	3125.12382	114.84760	-23737.25596
0.40149	1.10157E5	3124.12382	114.37975	-23802.32840
0.39976	1.10043E5	3123.12382	113.91569	-23866.96814
0.39804	1.09930E5	3122.12382	113.45536	-23931.17878
0.39633	1.09817E5	3121.12382	112.99873	-23994.96385
0.39462	1.09704E5	3120.12382	112.54577	-24058.32687
0.39293	1.09592E5	3119.12382	112.09644	-24121.27131
0.39125	1.09480E5	3118.12382	111.65070	-24183.80062
0.38958	1.09369E5	3117.12382	111.20852	-24245.91820
0.38792	1.09258E5	3116.12382	110.76986	-24307.62743
0.38627	1.09148E5	3115.12382	110.33469	-24368.93165
0.38463	1.09038E5	3114.12382	109.90297	-24429.83417
0.38300	1.08929E5	3113.12382	109.47468	-24490.33826
0.38138	1.08819E5	3112.12382	109.04977	-24550.44717
0.37977	1.08711E5	3111.12382	108.62822	-24610.16411
0.37816	1.08603E5	3110.12382	108.20999	-24669.49227
0.37657	1.08495E5	3109.12382	107.79505	-24728.43478
0.37499	1.08387E5	3108.12382	107.38337	-24786.99478
0.37341	1.08280E5	3107.12382	106.97492	-24845.17534
0.37185	1.08174E5	3106.12382	106.56966	-24902.97953
0.37029	1.08068E5	3105.12382	106.16757	-24960.41038
0.36874	1.07962E5	3104.12382	105.76861	-25017.47088
0.36721	1.07857E5	3103.12382	105.37276	-25074.16402
0.36568	1.07752E5	3102.12382	104.97998	-25130.49272
0.36416	1.07647E5	3101.12382	104.59025	-25186.45991
0.36265	1.07543E5	3100.12382	104.20354	-25242.06847
0.36115	1.07439E5	3099.12382	103.81981	-25297.32126
0.35965	1.07336E5	3098.12382	103.43904	-25352.22111
0.35817	1.07233E5	3097.12382	103.06120	-25406.77083
0.35669	1.07130E5	3096.12382	102.68627	-25460.97318
0.35522	1.07028E5	3095.12382	102.31422	-25514.83093
0.35376	1.06926E5	3094.12382	101.94501	-25568.34680
0.35231	1.06824E5	3093.12382	101.57862	-25621.52348
0.35087	1.06723E5	3092.12382	101.21503	-25674.36365
0.34944	1.06622E5	3091.12382	100.85422	-25726.86996
0.34801	1.06521E5	3090.12382	100.49614	-25779.04503
0.34659	1.06421E5	3089.12382	100.14078	-25830.89145
0.34518	1.06321E5	3088.12382	99.78812	-25882.41181
0.34378	1.06222E5	3087.12382	99.43812	-25933.60865
0.34239	1.06123E5	3086.12382	99.09076	-25984.48450
0.34100	1.06024E5	3085.12382	98.74602	-26035.04186
0.33962	1.05926E5	3084.12382	98.40388	-26085.28321
0.33825	1.05828E5	3083.12382	98.06430	-26135.21100
0.33689	1.05730E5	3082.12382	97.72727	-26184.82766
0.33553	1.05633E5	3081.12382	97.39276	-26234.13561
0.33419	1.05536E5	3080.12382	97.06076	-26283.13723
0.33285	1.05439E5	3079.12382	96.73122	-26331.83489
0.33151	1.05342E5	3078.12382	96.40414	-26380.23094
0.33019	1.05246E5	3077.12382	96.07949	-26428.32768
0.32887	1.05151E5	3076.12382	95.75725	-26476.12743
0.32756	1.05055E5	3075.12382	95.43740	-26523.63246
0.32626	1.04960E5	3074.12382	95.11991	-26570.84503
0.32496	1.04865E5	3073.12382	94.80476	-26617.76738
0.32367	1.04771E5	3072.12382	94.49194	-26664.40172
0.32239	1.04677E5	3071.12382	94.18141	-26710.75026
0.32112	1.04583E5	3070.12382	93.87317	-26756.81516
0.31985	1.04489E5	3069.12382	93.56718	-26802.59858
0.31859	1.04396E5	3068.12382	93.26343	-26848.10267
0.31734	1.04303E5	3067.12382	92.96190	-26893.32953
0.31609	1.04210E5	3066.12382	92.66257	-26938.28127
0.31485	1.04118E5	3065.12382	92.36541	-26982.95996
0.31362	1.04026E5	3064.12382	92.07042	-27027.36766
0.31239	1.03934E5	3063.12382	91.77756	-27071.50642
0.31117	1.03843E5	3062.12382	91.48683	-27115.37827
0.30996	1.03751E5	3061.12382	91.19819	-27158.98519
0.30875	1.03660E5	3060.12382	90.91164	-27202.32918
0.30755	1.03570E5	3059.12382	90.62715	-27245.41222
0.30636	1.03479E5	3058.12382	90.34471	-27288.23624
0.30517	1.03389E5	3057.12382	90.06429	-27330.80319
0.30399	1.03300E5	3056.12382	89.78589	-27373.11498
0.30282	1.03210E5	3055.12382	89.50947	-27415.17351
0.30165	1.03121E5	3054.12382	89.23503	-27456.98066
0.30049	1.03032E5	3053.12382	88.96255	-27498.53830
0.29933	1.02943E5	3052.12382	88.69200	-27539.84827
0.29818	1.02855E5	3051.12382	88.42337	-27580.91241
0.29704	1.02767E5	3050.12382	88.15666	-27621.73254
0.29590	1.02679E5	3049.12382	87.89182	-27662.31045
0.29477	1.02591E5	3048.12382	87.62886	-27702.64793
0.29365	1.02504E5	3047.12382	87.36776	-27742.74674
0.29253	1.02417E5	3046.12382	87.10849	-27782.60865
0.29142	1.02330E5	3045.12382	86.85105	-27822.23539
0.29031	1.02243E5	3044.12382	86.59542	-27861.62867
0.28921	1.02157E5	3043.12382	86.34157	-27900.79021
0.28811	1.02071E5	3042.12382	86.08950	-27939.72170
0.28702	1.01985E5	3041.12382	85.83920	-27978.42481
0.28594	1.01899E5	3040.12382	85.59063	-28016.90121
0.28486	1.01814E5	3039.12382	85.34380	-28055.15255
0.28379	1.01729E5	3038.12382	85.09868	-28093.18046
0.28272	1.01644E5	3037.12382	84.85526	-28130.98656
0.28166	1.01559E5	3036.12382	84.61353	-28168.57245
0.28061	1.01475E5	3035.12382	84.37347	-28205.93973
0.27955	1.01391E5	3034.12382	84.13507	-28243.08997
0.27851	1.01307E5	3033.12382	83.89830	-28280.02473
0.27747	1.01223E5	3032.12382	83.66317	-28316.74558
0.27644	1.01140E5	3031.12382	83.42965	-28353.25404
0.27541	1.01057E5	3030.12382	83.19773	-28389.55164
0.27438	1.00974E5	3029.12382	82.96740	-28425.63989
0.27337	1.00891E5	3028.12382	82.73864	-28461.52029
0.27235	1.00808E5	3027.12382	82.51144	-28497.19432
0.27135	1.00726E5	3026.12382	82.28579	-28532.66345
0.27034	1.00644E5	3025.12382	82.06167	-28567.92915
0.26935	1.00562E5	3024.12382	81.83907	-28602.99286
0.26835	1.00481E5	3023.12382	81.61798	-28637.85602
0.26737	1.00399E5	3022.12382	81.39839	-28672.52004
0.26638	1.00318E5	3021.12382	81.18028	-28706.98634
0.26541	1.00237E5	3020.12382	80.96363	-28741.25633
0.26443	1.00156E5	3019.12382	80.74845	-28775.33137
0.26347	1.00076E5	3018.12382	80.53471	-28809.21286
0.26251	99995.54061	3017.12382	80.32240	-28842.90215
0.26155	99915.42909	3016.12382	80.11152	-28876.40059
0.26059	99835.52704	3015.12382	79.90205	-28909.70953
0.25965	99755.83307	3014.12382	79.69397	-28942.83030
0.25870	99676.34580	3013.12382	79.48728	-28975.76420
0.25777	99597.06384	3012.12382	79.28196	-29008.51256
0.25683	99517.98583	3011.12382	79.07801	-29041.07666
0.25590	99439.11043	3010.12382	78.87540	-29073.45779
0.25498	99360.43628	3009.12382	78.67414	-29105.65723
0.25406	99281.96207	3008.12382	78.47421	-29137.67624
0.25314	99203.68648	3007.12382	78.27560	-29169.51606
0.25223	99125.60818	3006.12382	78.07829	-29201.17795
0.25133	99047.72590	3005.12382	77.88228	-29232.66314
0.25043	98970.03834	3004.12382	77.68756	-29263.97285
0.24953	98892.54423	3003.12382	77.49411	-29295.10829
0.24864	98815.24230	3002.12382	77.30193	-29326.07067
0.24775	98738.13129	3001.12382	77.11100	-29356.86117
0.24686	98661.20997	3000.12382	76.92132	-29387.48098
0.24599	98584.47710	2999.12382	76.73287	-29417.93127
0.24511	98507.93145	2998.12382	76.54565	-29448.21320
0.24424	98431.57181	2997.12382	76.35964	-29478.32793
0.24337	98355.39698	2996.12382	76.17483	-29508.27660
0.24251	98279.40576	2995.12382	75.99122	-29538.06035
0.24165	98203.59696	2994.12382	75.80880	-29567.68030
0.24080	98127.96941	2993.12382	75.62755	-29597.13756
0.23995	98052.52195	2992.12382	75.44746	-29626.43325
0.23910	97977.25342	2991.12382	75.26853	-29655.56847
0.23826	97902.16267	2990.12382	75.09075	-29684.54429
0.23742	97827.24856	2989.12382	74.91411	-29713.36181
0.23659	97752.50996	2988.12382	74.73859	-29742.02208
0.23576	97677.94576	2987.12382	74.56420	-29770.52619
0.23494	97603.55485	2986.12382	74.39092	-29798.87517
0.23412	97529.33612	2985.12382	74.21873	-29827.07008
0.23330	97455.28847	2984.12382	74.04764	-29855.11195
0.23248	97381.41083	2983.12382	73.87764	-29883.00181
0.23167	97307.70213	2982.12382	73.70871	-29910.74069
0.23087	97234.16128	2981.12382	73.54085	-29938.32959
0.23007	97160.78724	2980.12382	73.37404	-29965.76952
0.22927	97087.57895	2979.12382	73.20829	-29993.06147
0.22848	97014.53538	2978.12382	73.04357	-30020.20643
0.22769	96941.65548	2977.12382	72.87990	-30047.20539
0.22690	96868.93824	2976.12382	72.71724	-30074.05932
0.22612	96796.38263	2975.12382	72.55561	-30100.76918
0.22534	96723.98765	2974.12382	72.39498	-30127.33592
0.22456	96651.75230	2973.12382	72.23535	-30153.76050
0.22379	96579.67558	2972.12382	72.07672	-30180.04386
0.22302	96507.75651	2971.12382	71.91907	-30206.18693
0.22226	96435.99410	2970.12382	71.76241	-30232.19065
0.22150	96364.38739	2969.12382	71.60671	-30258.05592
0.22074	96292.93542	2968.12382	71.45197	-30283.78367
0.21998	96221.63723	2967.12382	71.29819	-30309.37480
0.21923	96150.49188	2966.12382	71.14536	-30334.83020
0.21849	96079.49842	2965.12382	70.99346	-30360.15077
0.21774	96008.65591	2964.12382	70.84250	-30385.33739
0.21701	95937.96344	2963.12382	70.69247	-30410.39094
0.21627	95867.42009	2962.12382	70.54335	-30435.31229
0.21554	95797.02495	2961.12382	70.39515	-30460.10230
0.21481	95726.77710	2960.12382	70.24785	-30484.76183
0.21408	95656.67566	2959.12382	70.10144	-30509.29173
0.21336	95586.71973	2958.12382	69.95593	-30533.69284
0.21264	95516.90843	2957.12382	69.81130	-30557.96600
0.21192	95447.24088	2956.12382	69.66755	-30582.11205
0.21121	95377.71621	2955.12382	69.52467	-30606.13179
0.21050	95308.33357	2954.12382	69.38265	-30630.02606
0.20979	95239.09208	2953.12382	69.24148	-30653.79566
0.20909	95169.99091	2952.12382	69.10117	-30677.44140
0.20839	95101.02921	2951.12382	68.96170	-30700.96407
0.20770	95032.20614	2950.12382	68.82307	-30724.36447
0.20700	94963.52087	2949.12382	68.68527	-30747.64339
0.20631	94894.97258	2948.12382	68.54829	-30770.80161
0.20562	94826.56044	2947.12382	68.41213	-30793.83989
0.20494	94758.28365	2946.12382	68.27679	-30816.75901
0.20426	94690.14141	2945.12382	68.14225	-30839.55974
0.20358	94622.13290	2944.12382	68.00851	-30862.24282
0.20291	94554.25734	2943.12382	67.87556	-30884.80901
0.20224	94486.51395	2942.12382	67.74340	-30907.25906
0.20157	94418.90193	2941.12382	67.61202	-30929.59370
0.20090	94351.42051	2940.12382	67.48142	-30951.81366
0.20024	94284.06892	2939.12382	67.35159	-30973.91969
0.19958	94216.84640	2938.12382	67.22252	-30995.91249
0.19892	94149.75220	2937.12382	67.09421	-31017.79279
0.19827	94082.78555	2936.12382	66.96665	-31039.56130
0.19762	94015.94571	2935.12382	66.83984	-31061.21872
0.19697	93949.23194	2934.12382	66.71377	-31082.76576
0.19633	93882.64350	2933.12382	66.58844	-31104.20312
0.19569	93816.17966	2932.12382	66.46384	-31125.53147
0.19505	93749.83970	2931.12382	66.33996	-31146.75151
0.19441	93683.62290	2930.12382	66.21680	-31167.86393
0.19378	93617.52854	2929.12382	66.09436	-31188.86938
0.19315	93551.55592	2928.12382	65.97262	-31209.76855
0.19252	93485.70432	2927.12382	65.85159	-31230.56210
0.19189	93419.97306	2926.12382	65.73126	-31251.25069
0.19127	93354.36144	2925.12382	65.61162	-31271.83498
0.19065	93288.86877	2924.12382	65.49267	-31292.31561
0.19004	93223.49436	2923.12382	65.37440	-31312.69323
0.18942	93158.23755	2922.12382	65.25682	-31332.96848
0.18881	93093.09765	2921.12382	65.13990	-31353.14200
0.18820	93028.07400	2920.12382	65.02365	-31373.21442
