Mole fraction of liquid	Heat per mole [J]	Temperature [K]	Apparent heat capacity per mole [J/K]	Latent heat per mole [J]
1.00000	1.42896E5	3299.15558	62.17385	-2.91038E-11
0.99997	1.42890E5	3299.05995	62.17385	-1.42810
0.99378	1.42577E5	3298.05995	313.01964	-254.58794
0.98765	1.42266E5	3297.05995	310.53699	-505.37183
0.98158	1.41958E5	3296.05995	308.08327	-753.80776
0.97556	1.41652E5	3295.05995	305.65805	-0999.92330
0.96959	1.41349E5	3294.05995	303.26094	-1243.74567
0.96367	1.41048E5	3293.05995	300.89154	-1485.30165
0.95780	1.40750E5	3292.05995	298.54946	-1724.61770
0.95199	1.40453E5	3291.05995	296.23432	-1961.71987
0.94622	1.40159E5	3290.05995	293.94575	-2196.63385
0.94051	1.39868E5	3289.05995	291.68338	-2429.38497
0.93484	1.39578E5	3288.05995	289.44684	-2659.99824
0.92922	1.39291E5	3287.05995	287.23577	-2888.49826
0.92365	1.39006E5	3286.05995	285.04983	-3114.90935
0.91813	1.38723E5	3285.05995	282.88866	-3339.25545
0.91265	1.38442E5	3284.05995	280.75193	-3561.56019
0.90722	1.38164E5	3283.05995	278.63930	-3781.84687
0.90184	1.37887E5	3282.05995	276.55044	-4000.13846
0.89650	1.37613E5	3281.05995	274.48502	-4216.45763
0.89121	1.37340E5	3280.05995	272.44274	-4430.82673
0.88596	1.37070E5	3279.05995	270.42326	-4643.26781
0.88076	1.36801E5	3278.05995	268.42630	-4853.80262
0.87559	1.36535E5	3277.05995	266.45153	-5062.45261
0.87048	1.36270E5	3276.05995	264.49866	-5269.23893
0.86540	1.36008E5	3275.05995	262.56740	-5474.18246
0.86037	1.35747E5	3274.05995	260.65745	-5677.30380
0.85537	1.35488E5	3273.05995	258.76854	-5878.62326
0.85042	1.35232E5	3272.05995	256.90037	-6078.16088
0.84551	1.34976E5	3271.05995	255.05268	-6275.93643
0.84064	1.34723E5	3270.05995	253.22518	-6471.96942
0.83581	1.34472E5	3269.05995	251.41763	-6666.27911
0.83102	1.34222E5	3268.05995	249.62973	-6858.88448
0.82627	1.33974E5	3267.05995	247.86125	-7049.80428
0.82156	1.33728E5	3266.05995	246.11192	-7239.05699
0.81688	1.33484E5	3265.05995	244.38150	-7426.66087
0.81225	1.33241E5	3264.05995	242.66973	-7612.63392
0.80765	1.33000E5	3263.05995	240.97636	-7796.99390
0.80308	1.32761E5	3262.05995	239.30117	-7979.75837
0.79856	1.32523E5	3261.05995	237.64391	-8160.94462
0.79407	1.32287E5	3260.05995	236.00435	-8340.56973
0.78961	1.32053E5	3259.05995	234.38226	-8518.65057
0.78520	1.31820E5	3258.05995	232.77741	-8695.20376
0.78081	1.31589E5	3257.05995	231.18958	-8870.24574
0.77646	1.31359E5	3256.05995	229.61856	-9043.79271
0.77215	1.31131E5	3255.05995	228.06413	-9215.86068
0.76787	1.30905E5	3254.05995	226.52606	-9386.46543
0.76363	1.30680E5	3253.05995	225.00417	-9555.62256
0.75941	1.30456E5	3252.05995	223.49823	-9723.34746
0.75523	1.30234E5	3251.05995	222.00804	-9889.65533
0.75109	1.30014E5	3250.05995	220.53341	-10054.56115
0.74697	1.29795E5	3249.05995	219.07414	-10218.07974
0.74289	1.29577E5	3248.05995	217.63003	-10380.22572
0.73884	1.29361E5	3247.05995	216.20090	-10541.01353
0.73482	1.29146E5	3246.05995	214.78655	-10700.45741
0.73083	1.28933E5	3245.05995	213.38679	-10858.57143
0.72687	1.28721E5	3244.05995	212.00145	-11015.36949
0.72295	1.28510E5	3243.05995	210.63034	-11170.86531
0.71905	1.28301E5	3242.05995	209.27329	-11325.07244
0.71518	1.28093E5	3241.05995	207.93013	-11478.00424
0.71135	1.27886E5	3240.05995	206.60067	-11629.67393
0.70754	1.27681E5	3239.05995	205.28475	-11780.09456
0.70376	1.27477E5	3238.05995	203.98220	-11929.27901
0.70001	1.27274E5	3237.05995	202.69286	-12077.23999
0.69629	1.27073E5	3236.05995	201.41656	-12223.99008
0.69259	1.26873E5	3235.05995	200.15314	-12369.54167
0.68893	1.26674E5	3234.05995	198.90245	-12513.90704
0.68529	1.26476E5	3233.05995	197.66433	-12657.09828
0.68168	1.26280E5	3232.05995	196.43863	-12799.12734
0.67809	1.26084E5	3231.05995	195.22519	-12940.00605
0.67454	1.25890E5	3230.05995	194.02386	-13079.74605
0.67101	1.25697E5	3229.05995	192.83451	-13218.35889
0.66750	1.25506E5	3228.05995	191.65697	-13355.85593
0.66402	1.25315E5	3227.05995	190.49112	-13492.24842
0.66057	1.25126E5	3226.05995	189.33681	-13627.54747
0.65714	1.24938E5	3225.05995	188.19389	-13761.76405
0.65374	1.24751E5	3224.05995	187.06225	-13894.90900
0.65036	1.24565E5	3223.05995	185.94172	-14026.99303
0.64701	1.24380E5	3222.05995	184.83220	-14158.02672
0.64369	1.24196E5	3221.05995	183.73354	-14288.02053
0.64038	1.24014E5	3220.05995	182.64561	-14416.98478
0.63710	1.23832E5	3219.05995	181.56829	-14544.92967
0.63385	1.23652E5	3218.05995	180.50146	-14671.86529
0.63062	1.23472E5	3217.05995	179.44498	-14797.80160
0.62741	1.23294E5	3216.05995	178.39873	-14922.74845
0.62423	1.23116E5	3215.05995	177.36260	-15046.71557
0.62106	1.22940E5	3214.05995	176.33647	-15169.71255
0.61793	1.22765E5	3213.05995	175.32021	-15291.74892
0.61481	1.22590E5	3212.05995	174.31372	-15412.83404
0.61171	1.22417E5	3211.05995	173.31687	-15532.97720
0.60864	1.22245E5	3210.05995	172.32956	-15652.18756
0.60559	1.22073E5	3209.05995	171.35168	-15770.47419
0.60257	1.21903E5	3208.05995	170.38311	-15887.84604
0.59956	1.21734E5	3207.05995	169.42374	-16004.31195
0.59657	1.21565E5	3206.05995	168.47348	-16119.88068
0.59361	1.21398E5	3205.05995	167.53221	-16234.56087
0.59067	1.21231E5	3204.05995	166.59984	-16348.36106
0.58774	1.21065E5	3203.05995	165.67625	-16461.28970
0.58484	1.20901E5	3202.05995	164.76135	-16573.35514
0.58196	1.20737E5	3201.05995	163.85504	-16684.56562
0.57910	1.20574E5	3200.05995	162.95722	-16794.92931
0.57626	1.20412E5	3199.05995	162.06780	-16904.45427
0.57344	1.20250E5	3198.05995	161.18667	-17013.14846
0.57064	1.20090E5	3197.05995	160.31375	-17121.01978
0.56785	1.19931E5	3196.05995	159.44894	-17228.07600
0.56509	1.19772E5	3195.05995	158.59215	-17334.32483
0.56235	1.19614E5	3194.05995	157.74329	-17439.77388
0.55962	1.19457E5	3193.05995	156.90226	-17544.43068
0.55691	1.19301E5	3192.05995	156.06899	-17648.30267
0.55423	1.19146E5	3191.05995	155.24338	-17751.39721
0.55156	1.18992E5	3190.05995	154.42535	-17853.72156
0.54891	1.18838E5	3189.05995	153.61481	-17955.28293
0.54627	1.18685E5	3188.05995	152.81168	-18056.08842
0.54366	1.18533E5	3187.05995	152.01587	-18156.14508
0.54106	1.18382E5	3186.05995	151.22732	-18255.45983
0.53848	1.18232E5	3185.05995	150.44592	-18354.03958
0.53592	1.18082E5	3184.05995	149.67162	-18451.89111
0.53338	1.17933E5	3183.05995	148.90432	-18549.02114
0.53085	1.17785E5	3182.05995	148.14394	-18645.43633
0.52834	1.17637E5	3181.05995	147.39043	-18741.14324
0.52585	1.17491E5	3180.05995	146.64369	-18836.14839
0.52337	1.17345E5	3179.05995	145.90365	-18930.45820
0.52091	1.17200E5	3178.05995	145.17025	-19024.07902
0.51847	1.17055E5	3177.05995	144.44340	-19117.01716
0.51604	1.16912E5	3176.05995	143.72304	-19209.27882
0.51363	1.16769E5	3175.05995	143.00909	-19300.87016
0.51123	1.16626E5	3174.05995	142.30149	-19391.79727
0.50885	1.16485E5	3173.05995	141.60017	-19482.06615
0.50649	1.16344E5	3172.05995	140.90506	-19571.68277
0.50414	1.16204E5	3171.05995	140.21609	-19660.65302
0.50181	1.16064E5	3170.05995	139.53319	-19748.98271
0.49949	1.15925E5	3169.05995	138.85630	-19836.67760
0.49719	1.15787E5	3168.05995	138.18536	-19923.74340
0.49491	1.15649E5	3167.05995	137.52030	-20010.18574
0.49263	1.15513E5	3166.05995	136.86106	-20096.01019
0.49038	1.15376E5	3165.05995	136.20758	-20181.22228
0.48813	1.15241E5	3164.05995	135.55979	-20265.82745
0.48591	1.15106E5	3163.05995	134.91764	-20349.83112
0.48369	1.14972E5	3162.05995	134.28106	-20433.23860
0.48149	1.14838E5	3161.05995	133.65000	-20516.05520
0.47931	1.14705E5	3160.05995	133.02439	-20598.28614
0.47714	1.14573E5	3159.05995	132.40419	-20679.93658
0.47498	1.14441E5	3158.05995	131.78932	-20761.01165
0.47284	1.14310E5	3157.05995	131.17974	-20841.51641
0.47071	1.14179E5	3156.05995	130.57540	-20921.45585
0.46860	1.14049E5	3155.05995	129.97623	-21000.83496
0.46649	1.13920E5	3154.05995	129.38218	-21079.65861
0.46441	1.13791E5	3153.05995	128.79319	-21157.93167
0.46233	1.13663E5	3152.05995	128.20923	-21235.65894
0.46027	1.13535E5	3151.05995	127.63022	-21312.84516
0.45822	1.13408E5	3150.05995	127.05613	-21389.49504
0.45618	1.13281E5	3149.05995	126.48690	-21465.61323
0.45416	1.13156E5	3148.05995	125.92248	-21541.20433
0.45215	1.13030E5	3147.05995	125.36282	-21616.27290
0.45015	1.12905E5	3146.05995	124.80787	-21690.82344
0.44817	1.12781E5	3145.05995	124.25758	-21764.86042
0.44619	1.12657E5	3144.05995	123.71190	-21838.38825
0.44423	1.12534E5	3143.05995	123.17080	-21911.41130
0.44229	1.12412E5	3142.05995	122.63421	-21983.93389
0.44035	1.12290E5	3141.05995	122.10210	-22055.96031
0.43843	1.12168E5	3140.05995	121.57442	-22127.49478
0.43651	1.12047E5	3139.05995	121.05112	-22198.54150
0.43461	1.11926E5	3138.05995	120.53216	-22269.10463
0.43273	1.11806E5	3137.05995	120.01749	-22339.18825
0.43085	1.11687E5	3136.05995	119.50708	-22408.79645
0.42898	1.11568E5	3135.05995	119.00087	-22477.93324
0.42713	1.11449E5	3134.05995	118.49883	-22546.60261
0.42529	1.11331E5	3133.05995	118.00091	-22614.80850
0.42346	1.11214E5	3132.05995	117.50707	-22682.55480
0.42164	1.11097E5	3131.05995	117.01728	-22749.84538
0.41983	1.10980E5	3130.05995	116.53148	-22816.68407
0.41803	1.10864E5	3129.05995	116.04965	-22883.07465
0.41624	1.10749E5	3128.05995	115.57174	-22949.02087
0.41447	1.10634E5	3127.05995	115.09770	-23014.52643
0.41270	1.10519E5	3126.05995	114.62751	-23079.59500
0.41095	1.10405E5	3125.05995	114.16113	-23144.23023
0.40920	1.10291E5	3124.05995	113.69851	-23208.43571
0.40747	1.10178E5	3123.05995	113.23963	-23272.21500
0.40575	1.10065E5	3122.05995	112.78443	-23335.57163
0.40404	1.09953E5	3121.05995	112.33289	-23398.50909
0.40233	1.09841E5	3120.05995	111.88497	-23461.03084
0.40064	1.09729E5	3119.05995	111.44064	-23523.14030
0.39896	1.09618E5	3118.05995	110.99985	-23584.84086
0.39729	1.09508E5	3117.05995	110.56258	-23646.13588
0.39562	1.09398E5	3116.05995	110.12879	-23707.02868
0.39397	1.09288E5	3115.05995	109.69845	-23767.52254
0.39233	1.09179E5	3114.05995	109.27152	-23827.62074
0.39070	1.09070E5	3113.05995	108.84797	-23887.32648
0.38907	1.08961E5	3112.05995	108.42776	-23946.64297
0.38746	1.08853E5	3111.05995	108.01087	-24005.57337
0.38586	1.08746E5	3110.05995	107.59726	-24064.12081
0.38426	1.08639E5	3109.05995	107.18690	-24122.28839
0.38268	1.08532E5	3108.05995	106.77975	-24180.07919
0.38110	1.08425E5	3107.05995	106.37580	-24237.49623
0.37954	1.08320E5	3106.05995	105.97500	-24294.54255
0.37798	1.08214E5	3105.05995	105.57733	-24351.22110
0.37643	1.08109E5	3104.05995	105.18275	-24407.53487
0.37489	1.08004E5	3103.05995	104.79124	-24463.48675
0.37336	1.07900E5	3102.05995	104.40277	-24519.07966
0.37184	1.07796E5	3101.05995	104.01731	-24574.31647
0.37032	1.07692E5	3100.05995	103.63482	-24629.20000
0.36882	1.07589E5	3099.05995	103.25529	-24683.73309
0.36733	1.07486E5	3098.05995	102.87868	-24737.91851
0.36584	1.07383E5	3097.05995	102.50497	-24791.75903
0.36436	1.07281E5	3096.05995	102.13412	-24845.25738
0.36289	1.07179E5	3095.05995	101.76612	-24898.41626
0.36143	1.07078E5	3094.05995	101.40093	-24951.23837
0.35998	1.06977E5	3093.05995	101.03852	-25003.72636
0.35853	1.06876E5	3092.05995	100.67888	-25055.88285
0.35709	1.06776E5	3091.05995	100.32198	-25107.71047
0.35567	1.06676E5	3090.05995	99.96778	-25159.21178
0.35425	1.06576E5	3089.05995	99.61627	-25210.38935
0.35283	1.06477E5	3088.05995	99.26742	-25261.24572
0.35143	1.06378E5	3087.05995	98.92120	-25311.78338
0.35003	1.06280E5	3086.05995	98.57759	-25362.00483
0.34864	1.06181E5	3085.05995	98.23657	-25411.91253
0.34726	1.06083E5	3084.05995	97.89811	-25461.50893
0.34589	1.05986E5	3083.05995	97.56218	-25510.79643
0.34453	1.05889E5	3082.05995	97.22877	-25559.77743
0.34317	1.05792E5	3081.05995	96.89786	-25608.45432
0.34182	1.05695E5	3080.05995	96.56941	-25656.82942
0.34047	1.05599E5	3079.05995	96.24340	-25704.90508
0.33914	1.05503E5	3078.05995	95.91982	-25752.68360
0.33781	1.05407E5	3077.05995	95.59864	-25800.16727
0.33649	1.05312E5	3076.05995	95.27984	-25847.35835
0.33518	1.05217E5	3075.05995	94.96340	-25894.25909
0.33387	1.05123E5	3074.05995	94.64929	-25940.87170
0.33257	1.05028E5	3073.05995	94.33749	-25987.19840
0.33128	1.04934E5	3072.05995	94.02799	-26033.24136
0.33000	1.04840E5	3071.05995	93.72076	-26079.00274
0.32872	1.04747E5	3070.05995	93.41578	-26124.48469
0.32745	1.04654E5	3069.05995	93.11303	-26169.68933
0.32619	1.04561E5	3068.05995	92.81249	-26214.61876
0.32493	1.04469E5	3067.05995	92.51415	-26259.27507
0.32368	1.04376E5	3066.05995	92.21797	-26303.66033
0.32244	1.04284E5	3065.05995	91.92395	-26347.77657
0.32120	1.04193E5	3064.05995	91.63206	-26391.62584
0.31998	1.04101E5	3063.05995	91.34228	-26435.21013
0.31875	1.04010E5	3062.05995	91.05459	-26478.53144
0.31754	1.03920E5	3061.05995	90.76898	-26521.59174
0.31633	1.03829E5	3060.05995	90.48543	-26564.39300
0.31512	1.03739E5	3059.05995	90.20392	-26606.93714
0.31393	1.03649E5	3058.05995	89.92442	-26649.22609
0.31274	1.03559E5	3057.05995	89.64693	-26691.26174
0.31155	1.03470E5	3056.05995	89.37142	-26733.04600
0.31038	1.03381E5	3055.05995	89.09788	-26774.58073
0.30921	1.03292E5	3054.05995	88.82629	-26815.86777
0.30804	1.03204E5	3053.05995	88.55663	-26856.90897
0.30688	1.03115E5	3052.05995	88.28888	-26897.70615
0.30573	1.03027E5	3051.05995	88.02304	-26938.26111
0.30459	1.02939E5	3050.05995	87.75907	-26978.57564
0.30345	1.02852E5	3049.05995	87.49697	-27018.65150
0.30231	1.02765E5	3048.05995	87.23672	-27058.49047
0.30118	1.02678E5	3047.05995	86.97830	-27098.09427
0.30006	1.02591E5	3046.05995	86.72169	-27137.46463
0.29894	1.02505E5	3045.05995	86.46689	-27176.60327
0.29783	1.02418E5	3044.05995	86.21387	-27215.51188
0.29673	1.02332E5	3043.05995	85.96262	-27254.19213
0.29563	1.02247E5	3042.05995	85.71313	-27292.64570
0.29454	1.02161E5	3041.05995	85.46537	-27330.87424
0.29345	1.02076E5	3040.05995	85.21934	-27368.87937
0.29237	1.01991E5	3039.05995	84.97501	-27406.66273
0.29129	1.01906E5	3038.05995	84.73238	-27444.22593
0.29022	1.01822E5	3037.05995	84.49143	-27481.57055
0.28916	1.01738E5	3036.05995	84.25214	-27518.69817
0.28810	1.01654E5	3035.05995	84.01450	-27555.61037
0.28704	1.01570E5	3034.05995	83.77850	-27592.30870
0.28600	1.01486E5	3033.05995	83.54412	-27628.79469
0.28495	1.01403E5	3032.05995	83.31135	-27665.06988
0.28392	1.01320E5	3031.05995	83.08017	-27701.13577
0.28288	1.01237E5	3030.05995	82.85057	-27736.99386
0.28186	1.01154E5	3029.05995	82.62255	-27772.64565
0.28084	1.01072E5	3028.05995	82.39607	-27808.09260
0.27982	1.00990E5	3027.05995	82.17114	-27843.33619
0.27881	1.00908E5	3026.05995	81.94773	-27878.37785
0.27780	1.00826E5	3025.05995	81.72584	-27913.21902
0.27680	1.00745E5	3024.05995	81.50545	-27947.86114
0.27580	1.00663E5	3023.05995	81.28654	-27982.30560
0.27481	1.00582E5	3022.05995	81.06912	-28016.55382
0.27383	1.00501E5	3021.05995	80.85316	-28050.60718
0.27285	1.00421E5	3020.05995	80.63865	-28084.46706
0.27187	1.00340E5	3019.05995	80.42558	-28118.13482
0.27090	1.00260E5	3018.05995	80.21394	-28151.61181
0.26993	1.00180E5	3017.05995	80.00371	-28184.89938
0.26897	1.00100E5	3016.05995	79.79489	-28217.99886
0.26802	1.00021E5	3015.05995	79.58746	-28250.91157
0.26706	99941.34639	3014.05995	79.38140	-28283.63881
0.26612	99862.16966	3013.05995	79.17672	-28316.18189
0.26518	99783.19627	3012.05995	78.97340	-28348.54209
0.26424	99704.42485	3011.05995	78.77142	-28380.72068
0.26331	99625.85407	3010.05995	78.57077	-28412.71894
0.26238	99547.48262	3009.05995	78.37145	-28444.53811
0.26145	99469.30917	3008.05995	78.17345	-28476.17944
0.26054	99391.33243	3007.05995	77.97674	-28507.64416
0.25962	99313.55110	3006.05995	77.78133	-28538.93350
0.25871	99235.96391	3005.05995	77.58719	-28570.04867
0.25781	99158.56958	3004.05995	77.39433	-28600.99087
0.25691	99081.36685	3003.05995	77.20273	-28631.76130
0.25601	99004.35448	3002.05995	77.01237	-28662.36114
0.25512	98927.53122	3001.05995	76.82326	-28692.79156
0.25423	98850.89585	3000.05995	76.63537	-28723.05372
0.25335	98774.44715	2999.05995	76.44870	-28753.14879
0.25247	98698.18390	2998.05995	76.26324	-28783.07791
0.25159	98622.10492	2997.05995	76.07899	-28812.84220
0.25072	98546.20900	2996.05995	75.89592	-28842.44280
0.24986	98470.49498	2995.05995	75.71402	-28871.88083
0.24899	98394.96167	2994.05995	75.53330	-28901.15738
0.24814	98319.60793	2993.05995	75.35374	-28930.27357
0.24728	98244.43259	2992.05995	75.17534	-28959.23048
0.24643	98169.43452	2991.05995	74.99807	-28988.02918
0.24559	98094.61259	2990.05995	74.82194	-29016.67076
0.24475	98019.96566	2989.05995	74.64692	-29045.15628
0.24391	97945.49263	2988.05995	74.47303	-29073.48679
0.24308	97871.19239	2987.05995	74.30024	-29101.66333
0.24225	97797.06385	2986.05995	74.12855	-29129.68695
0.24142	97723.10591	2985.05995	73.95794	-29157.55867
0.24060	97649.31750	2984.05995	73.78841	-29185.27951
0.23978	97575.69754	2983.05995	73.61996	-29212.85050
0.23897	97502.24498	2982.05995	73.45256	-29240.27262
0.23816	97428.95875	2981.05995	73.28622	-29267.54689
0.23735	97355.83783	2980.05995	73.12093	-29294.67428
0.23655	97282.88116	2979.05995	72.95667	-29321.65577
0.23575	97210.08772	2978.05995	72.79344	-29348.49235
0.23496	97137.45649	2977.05995	72.63123	-29375.18498
0.23417	97064.98645	2976.05995	72.47003	-29401.73460
0.23338	96992.67661	2975.05995	72.30984	-29428.14218
0.23260	96920.52597	2974.05995	72.15065	-29454.40865
0.23182	96848.53353	2973.05995	71.99244	-29480.53495
0.23104	96776.69832	2972.05995	71.83521	-29506.52201
0.23027	96705.01936	2971.05995	71.67896	-29532.37075
0.22950	96633.49569	2970.05995	71.52367	-29558.08207
0.22874	96562.12635	2969.05995	71.36934	-29583.65688
0.22798	96490.91039	2968.05995	71.21596	-29609.09609
0.22722	96419.84686	2967.05995	71.06352	-29634.40058
0.22646	96348.93484	2966.05995	70.91202	-29659.57124
0.22571	96278.17339	2965.05995	70.76145	-29684.60894
0.22497	96207.56159	2964.05995	70.61180	-29709.51456
0.22422	96137.09852	2963.05995	70.46306	-29734.28895
0.22348	96066.78329	2962.05995	70.31523	-29758.93298
0.22275	95996.61499	2961.05995	70.16830	-29783.44750
0.22201	95926.59273	2960.05995	70.02226	-29807.83334
0.22128	95856.71562	2959.05995	69.87711	-29832.09135
0.22056	95786.98279	2958.05995	69.73284	-29856.22235
0.21983	95717.39335	2957.05995	69.58944	-29880.22717
0.21911	95647.94645	2956.05995	69.44690	-29904.10663
0.21839	95578.64123	2955.05995	69.30522	-29927.86153
0.21768	95509.47683	2954.05995	69.16440	-29951.49269
0.21697	95440.45241	2953.05995	69.02442	-29975.00089
0.21626	95371.56713	2952.05995	68.88528	-29998.38694
0.21556	95302.82015	2951.05995	68.74698	-30021.65162
0.21486	95234.21066	2950.05995	68.60950	-30044.79570
0.21416	95165.73782	2949.05995	68.47284	-30067.81997
0.21347	95097.40083	2948.05995	68.33699	-30090.72519
0.21278	95029.19888	2947.05995	68.20195	-30113.51213
0.21209	94961.13116	2946.05995	68.06771	-30136.18154
0.21140	94893.19689	2945.05995	67.93427	-30158.73416
0.21072	94825.39527	2944.05995	67.80162	-30181.17075
0.21004	94757.72551	2943.05995	67.66975	-30203.49205
0.20937	94690.18685	2942.05995	67.53866	-30225.69879
0.20870	94622.77851	2941.05995	67.40834	-30247.79169
0.20803	94555.49972	2940.05995	67.27879	-30269.77148
0.20736	94488.34972	2939.05995	67.15000	-30291.63888
0.20670	94421.32776	2938.05995	67.02196	-30313.39459
0.20604	94354.43309	2937.05995	66.89467	-30335.03933
0.20538	94287.66497	2936.05995	66.76812	-30356.57380
0.20472	94221.02266	2935.05995	66.64231	-30377.99868
0.20407	94154.50542	2934.05995	66.51723	-30399.31467
0.20342	94088.11254	2933.05995	66.39288	-30420.52246
0.20278	94021.84329	2932.05995	66.26925	-30441.62273
0.20213	93955.69695	2931.05995	66.14634	-30462.61614
0.20149	93889.67282	2930.05995	66.02413	-30483.50338
0.20086	93823.77018	2929.05995	65.90263	-30504.28510
0.20022	93757.98835	2928.05995	65.78184	-30524.96196
0.19959	93692.32662	2927.05995	65.66173	-30545.53463
0.19896	93626.78430	2926.05995	65.54232	-30566.00374
0.19833	93561.36071	2925.05995	65.42358	-30586.36994
0.19771	93496.05518	2924.05995	65.30553	-30606.63388
0.19709	93430.86703	2923.05995	65.18816	-30626.79619
0.19647	93365.79558	2922.05995	65.07145	-30646.85750
0.19586	93300.84017	2921.05995	64.95540	-30666.81844
0.19524	93236.00015	2920.05995	64.84002	-30686.67962
0.19463	93171.27486	2919.05995	64.72529	-30706.44167
