Mole fraction of liquid	Heat per mole [J]	Temperature [K]	Apparent heat capacity per mole [J/K]	Latent heat per mole [J]
1.00000	1.46645E5	3357.36165	66.44023	-2.91038E-11
0.99996	1.46639E5	3357.26603	66.44023	-1.76641
0.99263	1.46265E5	3356.26603	373.53980	-314.50279
0.98537	1.45895E5	3355.26603	369.99524	-623.82062
0.97820	1.45529E5	3354.26603	366.49893	-929.76684
0.97109	1.45166E5	3353.26603	363.05007	-1232.38767
0.96406	1.44806E5	3352.26603	359.64789	-1531.72851
0.95710	1.44450E5	3351.26603	356.29162	-1827.83406
0.95021	1.44097E5	3350.26603	352.98051	-2120.74824
0.94339	1.43747E5	3349.26603	349.71382	-2410.51429
0.93664	1.43401E5	3348.26603	346.49084	-2697.17472
0.92996	1.43057E5	3347.26603	343.31084	-2980.77135
0.92334	1.42717E5	3346.26603	340.17315	-3261.34534
0.91679	1.42380E5	3345.26603	337.07706	-3538.93715
0.91031	1.42046E5	3344.26603	334.02193	-3813.58661
0.90389	1.41715E5	3343.26603	331.00708	-4085.33291
0.89754	1.41387E5	3342.26603	328.03188	-4354.21461
0.89124	1.41062E5	3341.26603	325.09569	-4620.26962
0.88502	1.40740E5	3340.26603	322.19790	-4883.53530
0.87885	1.40420E5	3339.26603	319.33789	-5144.04837
0.87274	1.40104E5	3338.26603	316.51506	-5401.84499
0.86669	1.39790E5	3337.26603	313.72884	-5656.96073
0.86071	1.39479E5	3336.26603	310.97864	-5909.43061
0.85478	1.39171E5	3335.26603	308.26391	-6159.28911
0.84890	1.38865E5	3334.26603	305.58408	-6406.57014
0.84309	1.38562E5	3333.26603	302.93861	-6651.30710
0.83733	1.38262E5	3332.26603	300.32697	-6893.53287
0.83163	1.37964E5	3331.26603	297.74863	-7133.27979
0.82598	1.37669E5	3330.26603	295.20308	-7370.57973
0.82039	1.37376E5	3329.26603	292.68981	-7605.46405
0.81485	1.37086E5	3328.26603	290.20833	-7837.96362
0.80936	1.36798E5	3327.26603	287.75815	-8068.10886
0.80392	1.36513E5	3326.26603	285.33879	-8295.92970
0.79854	1.36230E5	3325.26603	282.94977	-8521.45560
0.79321	1.35950E5	3324.26603	280.59065	-8744.71561
0.78792	1.35671E5	3323.26603	278.26095	-8965.73829
0.78269	1.35395E5	3322.26603	275.96025	-9184.55180
0.77751	1.35122E5	3321.26603	273.68809	-9401.18386
0.77237	1.34850E5	3320.26603	271.44406	-9615.66177
0.76728	1.34581E5	3319.26603	269.22772	-9828.01242
0.76224	1.34314E5	3318.26603	267.03867	-10038.26229
0.75725	1.34049E5	3317.26603	264.87650	-10246.43748
0.75230	1.33786E5	3316.26603	262.74080	-10452.56368
0.74740	1.33526E5	3315.26603	260.63118	-10656.66620
0.74254	1.33267E5	3314.26603	258.54726	-10858.76998
0.73773	1.33011E5	3313.26603	256.48865	-11058.89958
0.73296	1.32756E5	3312.26603	254.45499	-11257.07920
0.72824	1.32504E5	3311.26603	252.44591	-11453.33270
0.72356	1.32253E5	3310.26603	250.46103	-11647.68356
0.71892	1.32005E5	3309.26603	248.50002	-11840.15493
0.71432	1.31758E5	3308.26603	246.56253	-12030.76961
0.70977	1.31514E5	3307.26603	244.64820	-12219.55008
0.70526	1.31271E5	3306.26603	242.75671	-12406.51849
0.70078	1.31030E5	3305.26603	240.88772	-12591.69666
0.69635	1.30791E5	3304.26603	239.04091	-12775.10610
0.69195	1.30554E5	3303.26603	237.21596	-12956.76800
0.68760	1.30318E5	3302.26603	235.41256	-13136.70325
0.68328	1.30085E5	3301.26603	233.63039	-13314.93244
0.67901	1.29853E5	3300.26603	231.86915	-13491.47586
0.67477	1.29623E5	3299.26603	230.12855	-13666.35351
0.67056	1.29394E5	3298.26603	228.40828	-13839.58511
0.66640	1.29168E5	3297.26603	226.70807	-14011.19009
0.66227	1.28943E5	3296.26603	225.02763	-14181.18762
0.65818	1.28719E5	3295.26603	223.36667	-14349.59656
0.65412	1.28497E5	3294.26603	221.72493	-14516.43556
0.65010	1.28277E5	3293.26603	220.10213	-14681.72294
0.64611	1.28059E5	3292.26603	218.49802	-14845.47683
0.64216	1.27842E5	3291.26603	216.91231	-15007.71505
0.63824	1.27627E5	3290.26603	215.34477	-15168.45520
0.63436	1.27413E5	3289.26603	213.79514	-15327.71462
0.63051	1.27201E5	3288.26603	212.26317	-15485.51042
0.62669	1.26990E5	3287.26603	210.74861	-15641.85946
0.62291	1.26781E5	3286.26603	209.25122	-15796.77838
0.61915	1.26573E5	3285.26603	207.77077	-15950.28358
0.61543	1.26366E5	3284.26603	206.30703	-16102.39122
0.61174	1.26162E5	3283.26603	204.85976	-16253.11727
0.60809	1.25958E5	3282.26603	203.42874	-16402.47745
0.60446	1.25756E5	3281.26603	202.01375	-16550.48728
0.60086	1.25556E5	3280.26603	200.61457	-16697.16206
0.59730	1.25356E5	3279.26603	199.23099	-16842.51689
0.59376	1.25158E5	3278.26603	197.86278	-16986.56666
0.59025	1.24962E5	3277.26603	196.50976	-17129.32605
0.58678	1.24767E5	3276.26603	195.17171	-17270.80955
0.58333	1.24573E5	3275.26603	193.84842	-17411.03145
0.57991	1.24380E5	3274.26603	192.53971	-17550.00585
0.57652	1.24189E5	3273.26603	191.24537	-17687.74666
0.57315	1.23999E5	3272.26603	189.96522	-17824.26760
0.56982	1.23810E5	3271.26603	188.69906	-17959.58221
0.56651	1.23623E5	3270.26603	187.44672	-18093.70385
0.56323	1.23437E5	3269.26603	186.20799	-18226.64569
0.55997	1.23252E5	3268.26603	184.98272	-18358.42074
0.55675	1.23068E5	3267.26603	183.77071	-18489.04182
0.55355	1.22885E5	3266.26603	182.57179	-18618.52161
0.55037	1.22704E5	3265.26603	181.38580	-18746.87259
0.54722	1.22524E5	3264.26603	180.21256	-18874.10708
0.54410	1.22345E5	3263.26603	179.05190	-19000.23727
0.54100	1.22167E5	3262.26603	177.90366	-19125.27515
0.53792	1.21990E5	3261.26603	176.76769	-19249.23257
0.53487	1.21815E5	3260.26603	175.64381	-19372.12123
0.53185	1.21640E5	3259.26603	174.53187	-19493.95266
0.52885	1.21467E5	3258.26603	173.43172	-19614.73827
0.52587	1.21294E5	3257.26603	172.34321	-19734.48930
0.52292	1.21123E5	3256.26603	171.26618	-19853.21683
0.51999	1.20953E5	3255.26603	170.20049	-19970.93184
0.51708	1.20784E5	3254.26603	169.14600	-20087.64512
0.51420	1.20615E5	3253.26603	168.10255	-20203.36737
0.51134	1.20448E5	3252.26603	167.07002	-20318.10910
0.50850	1.20282E5	3251.26603	166.04825	-20431.88073
0.50569	1.20117E5	3250.26603	165.03712	-20544.69253
0.50289	1.19953E5	3249.26603	164.03649	-20656.55463
0.50012	1.19790E5	3248.26603	163.04622	-20767.47705
0.49737	1.19628E5	3247.26603	162.06618	-20877.46966
0.49464	1.19467E5	3246.26603	161.09625	-20986.54223
0.49193	1.19307E5	3245.26603	160.13630	-21094.70439
0.48925	1.19148E5	3244.26603	159.18621	-21201.96564
0.48658	1.18990E5	3243.26603	158.24584	-21308.33539
0.48393	1.18832E5	3242.26603	157.31509	-21413.82291
0.48131	1.18676E5	3241.26603	156.39382	-21518.43735
0.47870	1.18520E5	3240.26603	155.48192	-21622.18777
0.47612	1.18366E5	3239.26603	154.57928	-21725.08309
0.47355	1.18212E5	3238.26603	153.68578	-21827.13213
0.47101	1.18059E5	3237.26603	152.80131	-21928.34361
0.46848	1.17907E5	3236.26603	151.92575	-22028.72612
0.46597	1.17756E5	3235.26603	151.05900	-22128.28816
0.46349	1.17606E5	3234.26603	150.20095	-22227.03813
0.46102	1.17457E5	3233.26603	149.35149	-22324.98431
0.45856	1.17308E5	3232.26603	148.51052	-22422.13488
0.45613	1.17161E5	3231.26603	147.67794	-22518.49794
0.45372	1.17014E5	3230.26603	146.85363	-22614.08147
0.45132	1.16868E5	3229.26603	146.03751	-22708.89336
0.44894	1.16722E5	3228.26603	145.22947	-22802.94141
0.44658	1.16578E5	3227.26603	144.42941	-22896.23330
0.44424	1.16434E5	3226.26603	143.63724	-22988.77665
0.44191	1.16291E5	3225.26603	142.85287	-23080.57897
0.43960	1.16149E5	3224.26603	142.07619	-23171.64768
0.43731	1.16008E5	3223.26603	141.30712	-23261.99011
0.43504	1.15868E5	3222.26603	140.54557	-23351.61351
0.43278	1.15728E5	3221.26603	139.79144	-23440.52504
0.43054	1.15589E5	3220.26603	139.04466	-23528.73176
0.42831	1.15450E5	3219.26603	138.30512	-23616.24067
0.42611	1.15313E5	3218.26603	137.57275	-23703.05866
0.42391	1.15176E5	3217.26603	136.84746	-23789.19256
0.42174	1.15040E5	3216.26603	136.12917	-23874.64911
0.41958	1.14904E5	3215.26603	135.41779	-23959.43497
0.41743	1.14770E5	3214.26603	134.71324	-24043.55672
0.41530	1.14636E5	3213.26603	134.01544	-24127.02087
0.41319	1.14502E5	3212.26603	133.32432	-24209.83383
0.41109	1.14370E5	3211.26603	132.63980	-24292.00197
0.40900	1.14238E5	3210.26603	131.96179	-24373.53156
0.40693	1.14107E5	3209.26603	131.29023	-24454.42880
0.40488	1.13976E5	3208.26603	130.62503	-24534.69982
0.40284	1.13846E5	3207.26603	129.96613	-24614.35069
0.40081	1.13717E5	3206.26603	129.31344	-24693.38739
0.39880	1.13588E5	3205.26603	128.66691	-24771.81584
0.39681	1.13460E5	3204.26603	128.02646	-24849.64189
0.39482	1.13333E5	3203.26603	127.39201	-24926.87132
0.39286	1.13206E5	3202.26603	126.76350	-25003.50986
0.39090	1.13080E5	3201.26603	126.14087	-25079.56314
0.38896	1.12954E5	3200.26603	125.52404	-25155.03676
0.38703	1.12829E5	3199.26603	124.91295	-25229.93623
0.38512	1.12705E5	3198.26603	124.30753	-25304.26702
0.38322	1.12581E5	3197.26603	123.70771	-25378.03451
0.38133	1.12458E5	3196.26603	123.11345	-25451.24405
0.37946	1.12336E5	3195.26603	122.52466	-25523.90090
0.37760	1.12214E5	3194.26603	121.94129	-25596.01027
0.37575	1.12092E5	3193.26603	121.36329	-25667.57733
0.37391	1.11971E5	3192.26603	120.79058	-25738.60716
0.37209	1.11851E5	3191.26603	120.22311	-25809.10480
0.37028	1.11732E5	3190.26603	119.66082	-25879.07524
0.36848	1.11612E5	3189.26603	119.10365	-25948.52340
0.36670	1.11494E5	3188.26603	118.55155	-26017.45414
0.36492	1.11376E5	3187.26603	118.00446	-26085.87228
0.36316	1.11258E5	3186.26603	117.46232	-26153.78259
0.36141	1.11142E5	3185.26603	116.92507	-26221.18977
0.35968	1.11025E5	3184.26603	116.39267	-26288.09848
0.35795	1.10909E5	3183.26603	115.86506	-26354.51331
0.35624	1.10794E5	3182.26603	115.34219	-26420.43883
0.35454	1.10679E5	3181.26603	114.82401	-26485.87953
0.35284	1.10565E5	3180.26603	114.31045	-26550.83986
0.35117	1.10451E5	3179.26603	113.80148	-26615.32423
0.34950	1.10338E5	3178.26603	113.29704	-26679.33699
0.34784	1.10225E5	3177.26603	112.79709	-26742.88244
0.34620	1.10113E5	3176.26603	112.30157	-26805.96486
0.34456	1.10001E5	3175.26603	111.81043	-26868.58844
0.34294	1.09889E5	3174.26603	111.32364	-26930.75735
0.34132	1.09779E5	3173.26603	110.84113	-26992.47572
0.33972	1.09668E5	3172.26603	110.36287	-27053.74762
0.33813	1.09558E5	3171.26603	109.88881	-27114.57708
0.33655	1.09449E5	3170.26603	109.41890	-27174.96809
0.33498	1.09340E5	3169.26603	108.95310	-27234.92460
0.33342	1.09231E5	3168.26603	108.49136	-27294.45050
0.33187	1.09123E5	3167.26603	108.03364	-27353.54965
0.33033	1.09016E5	3166.26603	107.57991	-27412.22587
0.32880	1.08909E5	3165.26603	107.13010	-27470.48295
0.32728	1.08802E5	3164.26603	106.68420	-27528.32460
0.32577	1.08696E5	3163.26603	106.24214	-27585.75454
0.32427	1.08590E5	3162.26603	105.80389	-27642.77642
0.32278	1.08485E5	3161.26603	105.36942	-27699.39385
0.32130	1.08380E5	3160.26603	104.93867	-27755.61042
0.31983	1.08275E5	3159.26603	104.51162	-27811.42966
0.31836	1.08171E5	3158.26603	104.08822	-27866.85508
0.31691	1.08067E5	3157.26603	103.66843	-27921.89015
0.31547	1.07964E5	3156.26603	103.25222	-27976.53828
0.31404	1.07861E5	3155.26603	102.83955	-28030.80289
0.31261	1.07759E5	3154.26603	102.43038	-28084.68732
0.31120	1.07657E5	3153.26603	102.02467	-28138.19489
0.30979	1.07555E5	3152.26603	101.62239	-28191.32890
0.30839	1.07454E5	3151.26603	101.22351	-28244.09259
0.30700	1.07353E5	3150.26603	100.82798	-28296.48919
0.30562	1.07253E5	3149.26603	100.43577	-28348.52188
0.30425	1.07153E5	3148.26603	100.04686	-28400.19381
0.30289	1.07053E5	3147.26603	99.66119	-28451.50810
0.30154	1.06954E5	3146.26603	99.27875	-28502.46784
0.30019	1.06855E5	3145.26603	98.89950	-28553.07608
0.29886	1.06756E5	3144.26603	98.52340	-28603.33584
0.29753	1.06658E5	3143.26603	98.15042	-28653.25011
0.29621	1.06560E5	3142.26603	97.78053	-28702.82187
0.29490	1.06463E5	3141.26603	97.41371	-28752.05403
0.29359	1.06366E5	3140.26603	97.04991	-28800.94950
0.29230	1.06269E5	3139.26603	96.68910	-28849.51114
0.29101	1.06173E5	3138.26603	96.33127	-28897.74180
0.28973	1.06077E5	3137.26603	95.97637	-28945.64429
0.28846	1.05981E5	3136.26603	95.62437	-28993.22140
0.28720	1.05886E5	3135.26603	95.27525	-29040.47587
0.28594	1.05791E5	3134.26603	94.92898	-29087.41043
0.28469	1.05697E5	3133.26603	94.58553	-29134.02779
0.28345	1.05602E5	3132.26603	94.24487	-29180.33062
0.28222	1.05508E5	3131.26603	93.90698	-29226.32155
0.28099	1.05415E5	3130.26603	93.57181	-29272.00321
0.27978	1.05322E5	3129.26603	93.23936	-29317.37819
0.27857	1.05229E5	3128.26603	92.90958	-29362.44905
0.27736	1.05136E5	3127.26603	92.58246	-29407.21833
0.27617	1.05044E5	3126.26603	92.25797	-29451.68855
0.27498	1.04952E5	3125.26603	91.93608	-29495.86220
0.27380	1.04860E5	3124.26603	91.61676	-29539.74174
0.27263	1.04769E5	3123.26603	91.30000	-29583.32961
0.27146	1.04678E5	3122.26603	90.98576	-29626.62822
0.27030	1.04587E5	3121.26603	90.67402	-29669.63997
0.26915	1.04497E5	3120.26603	90.36475	-29712.36722
0.26800	1.04407E5	3119.26603	90.05793	-29754.81232
0.26686	1.04317E5	3118.26603	89.75354	-29796.97759
0.26573	1.04228E5	3117.26603	89.45156	-29838.86532
0.26460	1.04139E5	3116.26603	89.15195	-29880.47779
0.26348	1.04050E5	3115.26603	88.85470	-29921.81725
0.26237	1.03961E5	3114.26603	88.55978	-29962.88593
0.26127	1.03873E5	3113.26603	88.26718	-30003.68605
0.26017	1.03785E5	3112.26603	87.97686	-30044.21979
0.25908	1.03697E5	3111.26603	87.68880	-30084.48930
0.25799	1.03610E5	3110.26603	87.40299	-30124.49675
0.25691	1.03523E5	3109.26603	87.11940	-30164.24425
0.25584	1.03436E5	3108.26603	86.83802	-30203.73390
0.25477	1.03349E5	3107.26603	86.55881	-30242.96779
0.25371	1.03263E5	3106.26603	86.28176	-30281.94798
0.25265	1.03177E5	3105.26603	86.00685	-30320.67651
0.25161	1.03091E5	3104.26603	85.73405	-30359.15541
0.25056	1.03006E5	3103.26603	85.46336	-30397.38666
0.24953	1.02921E5	3102.26603	85.19473	-30435.37227
0.24850	1.02836E5	3101.26603	84.92817	-30473.11420
0.24747	1.02751E5	3100.26603	84.66364	-30510.61438
0.24646	1.02667E5	3099.26603	84.40113	-30547.87475
0.24544	1.02582E5	3098.26603	84.14062	-30584.89721
0.24444	1.02499E5	3097.26603	83.88209	-30621.68367
0.24344	1.02415E5	3096.26603	83.62553	-30658.23597
0.24244	1.02332E5	3095.26603	83.37090	-30694.55599
0.24145	1.02248E5	3094.26603	83.11820	-30730.64556
0.24047	1.02166E5	3093.26603	82.86740	-30766.50650
0.23949	1.02083E5	3092.26603	82.61849	-30802.14061
0.23852	1.02001E5	3091.26603	82.37146	-30837.54967
0.23755	1.01918E5	3090.26603	82.12627	-30872.73546
0.23659	1.01837E5	3089.26603	81.88292	-30907.69972
0.23564	1.01755E5	3088.26603	81.64139	-30942.44419
0.23469	1.01674E5	3087.26603	81.40166	-30976.97059
0.23374	1.01592E5	3086.26603	81.16372	-31011.28062
0.23280	1.01511E5	3085.26603	80.92754	-31045.37597
0.23187	1.01431E5	3084.26603	80.69312	-31079.25831
0.23094	1.01350E5	3083.26603	80.46043	-31112.92929
0.23001	1.01270E5	3082.26603	80.22946	-31146.39055
0.22910	1.01190E5	3081.26603	80.00019	-31179.64372
0.22818	1.01110E5	3080.26603	79.77262	-31212.69041
0.22727	1.01031E5	3079.26603	79.54671	-31245.53220
0.22637	1.00951E5	3078.26603	79.32246	-31278.17069
0.22547	1.00872E5	3077.26603	79.09985	-31310.60744
0.22458	1.00793E5	3076.26603	78.87887	-31342.84399
0.22369	1.00715E5	3075.26603	78.65950	-31374.88188
0.22281	1.00636E5	3074.26603	78.44173	-31406.72263
0.22193	1.00558E5	3073.26603	78.22554	-31438.36776
0.22105	1.00480E5	3072.26603	78.01092	-31469.81876
0.22019	1.00402E5	3071.26603	77.79785	-31501.07710
0.21932	1.00325E5	3070.26603	77.58633	-31532.14425
0.21846	1.00247E5	3069.26603	77.37632	-31563.02168
0.21761	1.00170E5	3068.26603	77.16783	-31593.71081
0.21676	1.00093E5	3067.26603	76.96084	-31624.21307
0.21591	1.00016E5	3066.26603	76.75533	-31654.52989
0.21507	99939.94166	3065.26603	76.55130	-31684.66265
0.21424	99863.59294	3064.26603	76.34872	-31714.61276
0.21341	99787.44535	3063.26603	76.14759	-31744.38158
0.21258	99711.49747	3062.26603	75.94789	-31773.97047
0.21176	99635.74786	3061.26603	75.74960	-31803.38080
0.21094	99560.19513	3060.26603	75.55273	-31832.61390
0.21012	99484.83788	3059.26603	75.35725	-31861.67109
0.20932	99409.67473	3058.26603	75.16315	-31890.55369
0.20851	99334.70431	3057.26603	74.97042	-31919.26301
0.20771	99259.92526	3056.26603	74.77905	-31947.80033
0.20691	99185.33624	3055.26603	74.58902	-31976.16694
0.20612	99110.93592	3054.26603	74.40033	-32004.36411
0.20533	99036.72296	3053.26603	74.21295	-32032.39308
0.20455	98962.69607	3052.26603	74.02689	-32060.25512
0.20377	98888.85395	3051.26603	73.84213	-32087.95145
0.20300	98815.19530	3050.26603	73.65865	-32115.48329
0.20223	98741.71885	3049.26603	73.47645	-32142.85187
0.20146	98668.42334	3048.26603	73.29551	-32170.05838
0.20070	98595.30752	3047.26603	73.11582	-32197.10401
0.19994	98522.37014	3046.26603	72.93738	-32223.98995
0.19918	98449.60997	3045.26603	72.76017	-32250.71737
0.19843	98377.02579	3044.26603	72.58418	-32277.28743
0.19769	98304.61639	3043.26603	72.40940	-32303.70127
0.19694	98232.38057	3042.26603	72.23582	-32329.96005
0.19620	98160.31714	3041.26603	72.06343	-32356.06488
0.19547	98088.42493	3040.26603	71.89222	-32382.01690
0.19474	98016.70276	3039.26603	71.72217	-32407.81720
0.19401	97945.14947	3038.26603	71.55329	-32433.46690
0.19329	97873.76392	3037.26603	71.38555	-32458.96708
0.19257	97802.54497	3036.26603	71.21895	-32484.31882
0.19185	97731.49149	3035.26603	71.05348	-32509.52320
0.19114	97660.60236	3034.26603	70.88913	-32534.58129
0.19043	97589.87646	3033.26603	70.72589	-32559.49413
0.18973	97519.31271	3032.26603	70.56375	-32584.26277
0.18902	97448.91001	3031.26603	70.40270	-32608.88824
0.18833	97378.66728	3030.26603	70.24273	-32633.37158
0.18763	97308.58344	3029.26603	70.08384	-32657.71380
0.18694	97238.65744	3028.26603	69.92600	-32681.91591
0.18625	97168.88821	3027.26603	69.76922	-32705.97891
0.18557	97099.27472	3026.26603	69.61349	-32729.90380
0.18489	97029.81593	3025.26603	69.45879	-32753.69155
0.18421	96960.51081	3024.26603	69.30512	-32777.34315
0.18354	96891.35834	3023.26603	69.15247	-32800.85956
0.18287	96822.35751	3022.26603	69.00083	-32824.24173
0.18221	96753.50732	3021.26603	68.85019	-32847.49063
0.18154	96684.80678	3020.26603	68.70054	-32870.60719
0.18088	96616.25490	3019.26603	68.55188	-32893.59234
0.18023	96547.85070	3018.26603	68.40420	-32916.44702
0.17957	96479.59322	3017.26603	68.25748	-32939.17214
0.17892	96411.48150	3016.26603	68.11172	-32961.76861
0.17828	96343.51458	3015.26603	67.96692	-32984.23734
0.17764	96275.69153	3014.26603	67.82306	-33006.57922
0.17700	96208.01139	3013.26603	67.68013	-33028.79514
0.17636	96140.47325	3012.26603	67.53814	-33050.88598
0.17573	96073.07618	3011.26603	67.39707	-33072.85262
0.17510	96005.81928	3010.26603	67.25691	-33094.69592
0.17447	95938.70163	3009.26603	67.11765	-33116.41674
0.17385	95871.72233	3008.26603	66.97930	-33138.01593
0.17322	95804.88050	3007.26603	66.84183	-33159.49433
0.17261	95738.17525	3006.26603	66.70525	-33180.85279
0.17199	95671.60571	3005.26603	66.56954	-33202.09214
0.17138	95605.17100	3004.26603	66.43471	-33223.21319
0.17077	95538.87026	3003.26603	66.30073	-33244.21677
0.17017	95472.70265	3002.26603	66.16761	-33265.10368
0.16956	95406.66731	3001.26603	66.03534	-33285.87473
0.16896	95340.76339	3000.26603	65.90391	-33306.53072
0.16837	95274.99008	2999.26603	65.77332	-33327.07243
0.16777	95209.34653	2998.26603	65.64355	-33347.50065
0.16718	95143.83193	2997.26603	65.51460	-33367.81616
0.16660	95078.44546	2996.26603	65.38646	-33388.01972
0.16601	95013.18633	2995.26603	65.25914	-33408.11211
0.16543	94948.05371	2994.26603	65.13261	-33428.09408
0.16485	94883.04684	2993.26603	65.00688	-33447.96638
0.16427	94818.16490	2992.26603	64.88194	-33467.72976
0.16370	94753.40713	2991.26603	64.75777	-33487.38496
0.16313	94688.77274	2990.26603	64.63438	-33506.93271
0.16256	94624.26098	2989.26603	64.51177	-33526.37374
0.16199	94559.87107	2988.26603	64.38991	-33545.70877
0.16143	94495.60225	2987.26603	64.26881	-33564.93852
0.16087	94431.45379	2986.26603	64.14846	-33584.06371
0.16031	94367.42493	2985.26603	64.02886	-33603.08502
0.15976	94303.51494	2984.26603	63.90999	-33622.00317
0.15921	94239.72307	2983.26603	63.79186	-33640.81885
0.15866	94176.04862	2982.26603	63.67446	-33659.53273
0.15811	94112.49084	2981.26603	63.55777	-33678.14552
0.15757	94049.04904	2980.26603	63.44180	-33696.65788
0.15703	93985.72250	2979.26603	63.32654	-33715.07048
0.15649	93922.51051	2978.26603	63.21199	-33733.38399
0.15595	93859.41237	2977.26603	63.09813	-33751.59907
0.15542	93796.42740	2976.26603	62.98497	-33769.71638
