Mole fraction of liquid	Heat per mole [J]	Temperature [K]	Apparent heat capacity per mole [J/K]	Latent heat per mole [J]
1.00000	1.46425E5	3357.04090	66.19099	0.00000
0.99996	1.46419E5	3356.94527	66.19099	-1.74588
0.99267	1.46048E5	3355.94527	370.55528	-311.10210
0.98546	1.45681E5	3354.94527	367.04596	-617.07880
0.97832	1.45318E5	3353.94527	363.58440	-919.72240
0.97125	1.44958E5	3352.94527	360.16978	-1219.07853
0.96426	1.44601E5	3351.94527	356.80136	-1515.19210
0.95733	1.44247E5	3350.94527	353.47835	-1808.10724
0.95048	1.43897E5	3349.94527	350.20004	-2097.86740
0.94370	1.43550E5	3348.94527	346.96568	-2384.51529
0.93698	1.43206E5	3347.94527	343.77456	-2668.09292
0.93034	1.42866E5	3346.94527	340.62598	-2948.64163
0.92376	1.42528E5	3345.94527	337.51925	-3226.20208
0.91724	1.42194E5	3344.94527	334.45370	-3500.81429
0.91079	1.41862E5	3343.94527	331.42867	-3772.51759
0.90441	1.41534E5	3342.94527	328.44351	-4041.35073
0.89809	1.41208E5	3341.94527	325.49758	-4307.35181
0.89183	1.40886E5	3340.94527	322.59026	-4570.55831
0.88563	1.40566E5	3339.94527	319.72092	-4831.00713
0.87950	1.40249E5	3338.94527	316.88898	-5088.73458
0.87342	1.39935E5	3337.94527	314.09383	-5343.77640
0.86740	1.39624E5	3336.94527	311.33491	-5596.16773
0.86145	1.39315E5	3335.94527	308.61164	-5845.94320
0.85555	1.39009E5	3334.94527	305.92345	-6093.13687
0.84971	1.38706E5	3333.94527	303.26981	-6337.78227
0.84392	1.38405E5	3332.94527	300.65018	-6579.91240
0.83819	1.38107E5	3331.94527	298.06402	-6819.55975
0.83252	1.37812E5	3330.94527	295.51082	-7056.75630
0.82690	1.37519E5	3329.94527	292.99007	-7291.53355
0.82133	1.37228E5	3328.94527	290.50127	-7523.92248
0.81582	1.36940E5	3327.94527	288.04392	-7753.95362
0.81036	1.36655E5	3326.94527	285.61755	-7981.65701
0.80495	1.36371E5	3325.94527	283.22167	-8207.06225
0.79959	1.36091E5	3324.94527	280.85584	-8430.19846
0.79428	1.35812E5	3323.94527	278.51958	-8651.09433
0.78903	1.35536E5	3322.94527	276.21245	-8869.77813
0.78382	1.35262E5	3321.94527	273.93401	-9086.27765
0.77866	1.34990E5	3320.94527	271.68383	-9300.62032
0.77355	1.34721E5	3319.94527	269.46148	-9512.83310
0.76849	1.34453E5	3318.94527	267.26654	-9722.94258
0.76347	1.34188E5	3317.94527	265.09861	-9930.97494
0.75850	1.33925E5	3316.94527	262.95727	-10136.95596
0.75358	1.33665E5	3315.94527	260.84214	-10340.91104
0.74870	1.33406E5	3314.94527	258.75283	-10542.86520
0.74386	1.33149E5	3313.94527	256.68895	-10742.84309
0.73908	1.32894E5	3312.94527	254.65012	-10940.86899
0.73433	1.32642E5	3311.94527	252.63598	-11136.96681
0.72963	1.32391E5	3310.94527	250.64617	-11331.16014
0.72497	1.32142E5	3309.94527	248.68032	-11523.47219
0.72035	1.31896E5	3308.94527	246.73809	-11713.92583
0.71577	1.31651E5	3307.94527	244.81913	-11902.54361
0.71124	1.31408E5	3306.94527	242.92311	-12089.34776
0.70675	1.31167E5	3305.94527	241.04969	-12274.36015
0.70229	1.30928E5	3304.94527	239.19854	-12457.60236
0.69788	1.30690E5	3303.94527	237.36935	-12639.09564
0.69351	1.30455E5	3302.94527	235.56179	-12818.86095
0.68917	1.30221E5	3301.94527	233.77556	-12996.91894
0.68487	1.29989E5	3300.94527	232.01035	-13173.28996
0.68061	1.29759E5	3299.94527	230.26586	-13347.99406
0.67639	1.29530E5	3298.94527	228.54179	-13521.05102
0.67221	1.29303E5	3297.94527	226.83786	-13692.48032
0.66806	1.29078E5	3296.94527	225.15377	-13862.30118
0.66395	1.28855E5	3295.94527	223.48926	-14030.53253
0.65988	1.28633E5	3294.94527	221.84403	-14197.19303
0.65584	1.28413E5	3293.94527	220.21782	-14362.30110
0.65183	1.28194E5	3292.94527	218.61037	-14525.87488
0.64786	1.27977E5	3291.94527	217.02141	-14687.93225
0.64393	1.27762E5	3290.94527	215.45067	-14848.49086
0.64002	1.27548E5	3289.94527	213.89792	-15007.56808
0.63616	1.27335E5	3288.94527	212.36289	-15165.18108
0.63232	1.27125E5	3287.94527	210.84534	-15321.34675
0.62852	1.26915E5	3286.94527	209.34503	-15476.08177
0.62475	1.26707E5	3285.94527	207.86172	-15629.40257
0.62101	1.26501E5	3284.94527	206.39518	-15781.32538
0.61731	1.26296E5	3283.94527	204.94518	-15931.86617
0.61363	1.26092E5	3282.94527	203.51148	-16081.04072
0.60999	1.25890E5	3281.94527	202.09387	-16228.86458
0.60638	1.25690E5	3280.94527	200.69213	-16375.35309
0.60280	1.25490E5	3279.94527	199.30604	-16520.52138
0.59924	1.25292E5	3278.94527	197.93539	-16664.38436
0.59572	1.25096E5	3277.94527	196.57997	-16806.95675
0.59223	1.24901E5	3276.94527	195.23958	-16948.25308
0.58877	1.24707E5	3275.94527	193.91400	-17088.28767
0.58533	1.24514E5	3274.94527	192.60305	-17227.07463
0.58192	1.24323E5	3273.94527	191.30652	-17364.62792
0.57855	1.24133E5	3272.94527	190.02423	-17500.96128
0.57520	1.23944E5	3271.94527	188.75598	-17636.08827
0.57187	1.23756E5	3270.94527	187.50158	-17770.02228
0.56858	1.23570E5	3269.94527	186.26086	-17902.77651
0.56531	1.23385E5	3268.94527	185.03362	-18034.36399
0.56207	1.23201E5	3267.94527	183.81970	-18164.79757
0.55885	1.23019E5	3266.94527	182.61891	-18294.08995
0.55566	1.22837E5	3265.94527	181.43109	-18422.25363
0.55250	1.22657E5	3264.94527	180.25606	-18549.30096
0.54936	1.22478E5	3263.94527	179.09365	-18675.24414
0.54625	1.22300E5	3262.94527	177.94370	-18800.09519
0.54316	1.22123E5	3261.94527	176.80605	-18923.86597
0.54010	1.21948E5	3260.94527	175.68054	-19046.56822
0.53706	1.21773E5	3259.94527	174.56701	-19168.21347
0.53404	1.21600E5	3258.94527	173.46530	-19288.81316
0.53105	1.21427E5	3257.94527	172.37526	-19408.37853
0.52809	1.21256E5	3256.94527	171.29675	-19526.92070
0.52515	1.21086E5	3255.94527	170.22960	-19644.45065
0.52223	1.20916E5	3254.94527	169.17369	-19760.97921
0.51933	1.20748E5	3253.94527	168.12885	-19876.51706
0.51646	1.20581E5	3252.94527	167.09496	-19991.07476
0.51361	1.20415E5	3251.94527	166.07186	-20104.66273
0.51078	1.20250E5	3250.94527	165.05943	-20217.29125
0.50797	1.20086E5	3249.94527	164.05753	-20328.97047
0.50519	1.19923E5	3248.94527	163.06603	-20439.71042
0.50242	1.19761E5	3247.94527	162.08479	-20549.52099
0.49968	1.19600E5	3246.94527	161.11368	-20658.41196
0.49696	1.19440E5	3245.94527	160.15258	-20766.39296
0.49426	1.19280E5	3244.94527	159.20135	-20873.47353
0.49159	1.19122E5	3243.94527	158.25989	-20979.66307
0.48893	1.18965E5	3242.94527	157.32806	-21084.97086
0.48629	1.18808E5	3241.94527	156.40575	-21189.40608
0.48367	1.18653E5	3240.94527	155.49283	-21292.97778
0.48108	1.18498E5	3239.94527	154.58919	-21395.69490
0.47850	1.18345E5	3238.94527	153.69471	-21497.56627
0.47594	1.18192E5	3237.94527	152.80929	-21598.60061
0.47340	1.18040E5	3236.94527	151.93281	-21698.80653
0.47089	1.17889E5	3235.94527	151.06515	-21798.19254
0.46839	1.17739E5	3234.94527	150.20622	-21896.76704
0.46591	1.17589E5	3233.94527	149.35590	-21994.53832
0.46344	1.17441E5	3232.94527	148.51409	-22091.51459
0.46100	1.17293E5	3231.94527	147.68068	-22187.70392
0.45857	1.17146E5	3230.94527	146.85558	-22283.11432
0.45617	1.17000E5	3229.94527	146.03867	-22377.75368
0.45378	1.16855E5	3228.94527	145.22987	-22471.62981
0.45141	1.16711E5	3227.94527	144.42907	-22564.75040
0.44905	1.16567E5	3226.94527	143.63618	-22657.12308
0.44672	1.16424E5	3225.94527	142.85110	-22748.75535
0.44440	1.16282E5	3224.94527	142.07374	-22839.65464
0.44209	1.16141E5	3223.94527	141.30400	-22929.82830
0.43981	1.16000E5	3222.94527	140.54179	-23019.28357
0.43754	1.15860E5	3221.94527	139.78703	-23108.02762
0.43529	1.15721E5	3220.94527	139.03963	-23196.06752
0.43305	1.15583E5	3219.94527	138.29949	-23283.41027
0.43084	1.15445E5	3218.94527	137.56653	-23370.06276
0.42863	1.15309E5	3217.94527	136.84067	-23456.03184
0.42645	1.15172E5	3216.94527	136.12182	-23541.32424
0.42428	1.15037E5	3215.94527	135.40989	-23625.94662
0.42212	1.14902E5	3214.94527	134.70482	-23709.90557
0.41998	1.14768E5	3213.94527	134.00651	-23793.20761
0.41786	1.14635E5	3212.94527	133.31489	-23875.85915
0.41575	1.14502E5	3211.94527	132.62988	-23957.86656
0.41365	1.14370E5	3210.94527	131.95140	-24039.23611
0.41158	1.14239E5	3209.94527	131.27938	-24119.97401
0.40951	1.14109E5	3208.94527	130.61373	-24200.08640
0.40746	1.13979E5	3207.94527	129.95440	-24279.57932
0.40543	1.13849E5	3206.94527	129.30129	-24358.45879
0.40341	1.13721E5	3205.94527	128.65435	-24436.73071
0.40140	1.13593E5	3204.94527	128.01350	-24514.40095
0.39941	1.13465E5	3203.94527	127.37866	-24591.47527
0.39743	1.13338E5	3202.94527	126.74978	-24667.95941
0.39547	1.13212E5	3201.94527	126.12678	-24743.85901
0.39352	1.13087E5	3200.94527	125.50960	-24819.17967
0.39158	1.12962E5	3199.94527	124.89816	-24893.92689
0.38966	1.12838E5	3198.94527	124.29241	-24968.10615
0.38775	1.12714E5	3197.94527	123.69227	-25041.72283
0.38585	1.12591E5	3196.94527	123.09769	-25114.78227
0.38397	1.12468E5	3195.94527	122.50860	-25187.28975
0.38210	1.12346E5	3194.94527	121.92494	-25259.25048
0.38024	1.12225E5	3193.94527	121.34665	-25330.66961
0.37840	1.12104E5	3192.94527	120.77366	-25401.55224
0.37657	1.11984E5	3191.94527	120.20593	-25471.90341
0.37475	1.11864E5	3190.94527	119.64338	-25541.72809
0.37294	1.11745E5	3189.94527	119.08596	-25611.03122
0.37115	1.11627E5	3188.94527	118.53362	-25679.81765
0.36937	1.11509E5	3187.94527	117.98629	-25748.09222
0.36760	1.11391E5	3186.94527	117.44393	-25815.85967
0.36584	1.11275E5	3185.94527	116.90647	-25883.12472
0.36410	1.11158E5	3184.94527	116.37386	-25949.89201
0.36236	1.11042E5	3183.94527	115.84605	-26016.16616
0.36064	1.10927E5	3182.94527	115.32298	-26081.95171
0.35893	1.10812E5	3181.94527	114.80460	-26147.25317
0.35723	1.10698E5	3180.94527	114.29087	-26212.07498
0.35554	1.10584E5	3179.94527	113.78173	-26276.42156
0.35387	1.10471E5	3178.94527	113.27712	-26340.29724
0.35220	1.10358E5	3177.94527	112.77700	-26403.70634
0.35055	1.10246E5	3176.94527	112.28133	-26466.65312
0.34891	1.10134E5	3175.94527	111.79004	-26529.14178
0.34728	1.10023E5	3174.94527	111.30310	-26591.17650
0.34566	1.09912E5	3173.94527	110.82046	-26652.76138
0.34405	1.09802E5	3172.94527	110.34207	-26713.90051
0.34245	1.09692E5	3171.94527	109.86788	-26774.59792
0.34086	1.09582E5	3170.94527	109.39785	-26834.85759
0.33928	1.09473E5	3169.94527	108.93194	-26894.68346
0.33771	1.09365E5	3168.94527	108.47009	-26954.07944
0.33615	1.09257E5	3167.94527	108.01227	-27013.04938
0.33461	1.09149E5	3166.94527	107.55844	-27071.59710
0.33307	1.09042E5	3165.94527	107.10854	-27129.72637
0.33154	1.08935E5	3164.94527	106.66254	-27187.44093
0.33002	1.08829E5	3163.94527	106.22040	-27244.74448
0.32852	1.08723E5	3162.94527	105.78208	-27301.64066
0.32702	1.08618E5	3161.94527	105.34753	-27358.13310
0.32553	1.08513E5	3160.94527	104.91671	-27414.22538
0.32405	1.08409E5	3159.94527	104.48959	-27469.92102
0.32258	1.08305E5	3158.94527	104.06613	-27525.22353
0.32112	1.08201E5	3157.94527	103.64628	-27580.13638
0.31967	1.08098E5	3156.94527	103.23002	-27634.66300
0.31823	1.07995E5	3155.94527	102.81730	-27688.80677
0.31680	1.07893E5	3154.94527	102.40808	-27742.57104
0.31538	1.07791E5	3153.94527	102.00233	-27795.95915
0.31397	1.07689E5	3152.94527	101.60001	-27848.97438
0.31256	1.07588E5	3151.94527	101.20109	-27901.61997
0.31117	1.07487E5	3150.94527	100.80553	-27953.89915
0.30978	1.07387E5	3149.94527	100.41330	-28005.81509
0.30840	1.07287E5	3148.94527	100.02436	-28057.37094
0.30703	1.07187E5	3147.94527	99.63867	-28108.56983
0.30567	1.07088E5	3146.94527	99.25621	-28159.41483
0.30432	1.06989E5	3145.94527	98.87694	-28209.90900
0.30298	1.06890E5	3144.94527	98.50083	-28260.05536
0.30164	1.06792E5	3143.94527	98.12784	-28309.85690
0.30032	1.06694E5	3142.94527	97.75795	-28359.31657
0.29900	1.06597E5	3141.94527	97.39111	-28408.43731
0.29769	1.06500E5	3140.94527	97.02731	-28457.22201
0.29639	1.06403E5	3139.94527	96.66651	-28505.67355
0.29509	1.06307E5	3138.94527	96.30867	-28553.79474
0.29381	1.06211E5	3137.94527	95.95378	-28601.58842
0.29253	1.06115E5	3136.94527	95.60179	-28649.05736
0.29126	1.06020E5	3135.94527	95.25268	-28696.20430
0.29000	1.05925E5	3134.94527	94.90643	-28743.03198
0.28874	1.05831E5	3133.94527	94.56299	-28789.54310
0.28749	1.05736E5	3132.94527	94.22235	-28835.74031
0.28626	1.05643E5	3131.94527	93.88447	-28881.62627
0.28502	1.05549E5	3130.94527	93.54933	-28927.20358
0.28380	1.05456E5	3129.94527	93.21689	-28972.47484
0.28258	1.05363E5	3128.94527	92.88714	-29017.44261
0.28137	1.05270E5	3127.94527	92.56005	-29062.10942
0.28017	1.05178E5	3126.94527	92.23559	-29106.47780
0.27898	1.05086E5	3125.94527	91.91372	-29150.55021
0.27779	1.04995E5	3124.94527	91.59444	-29194.32914
0.27661	1.04903E5	3123.94527	91.27771	-29237.81700
0.27544	1.04812E5	3122.94527	90.96350	-29281.01622
0.27427	1.04722E5	3121.94527	90.65179	-29323.92919
0.27311	1.04631E5	3120.94527	90.34257	-29366.55826
0.27196	1.04541E5	3119.94527	90.03579	-29408.90578
0.27082	1.04452E5	3118.94527	89.73144	-29450.97406
0.26968	1.04362E5	3117.94527	89.42950	-29492.76541
0.26855	1.04273E5	3116.94527	89.12993	-29534.28209
0.26742	1.04184E5	3115.94527	88.83272	-29575.52636
0.26630	1.04096E5	3114.94527	88.53785	-29616.50044
0.26519	1.04007E5	3113.94527	88.24529	-29657.20653
0.26409	1.03919E5	3112.94527	87.95502	-29697.64683
0.26299	1.03832E5	3111.94527	87.66701	-29737.82349
0.26190	1.03744E5	3110.94527	87.38125	-29777.73866
0.26081	1.03657E5	3109.94527	87.09772	-29817.39445
0.25973	1.03571E5	3108.94527	86.81638	-29856.79297
0.25866	1.03484E5	3107.94527	86.53723	-29895.93630
0.25759	1.03398E5	3106.94527	86.26023	-29934.82649
0.25653	1.03312E5	3105.94527	85.98537	-29973.46559
0.25548	1.03226E5	3104.94527	85.71263	-30011.85561
0.25443	1.03141E5	3103.94527	85.44199	-30049.99856
0.25339	1.03055E5	3102.94527	85.17343	-30087.89642
0.25235	1.02971E5	3101.94527	84.90692	-30125.55114
0.25132	1.02886E5	3100.94527	84.64245	-30162.96467
0.25030	1.02801E5	3099.94527	84.38000	-30200.13894
0.24928	1.02717E5	3098.94527	84.11955	-30237.07585
0.24827	1.02634E5	3097.94527	83.86108	-30273.77729
0.24726	1.02550E5	3096.94527	83.60457	-30310.24512
0.24626	1.02467E5	3095.94527	83.35000	-30346.48120
0.24527	1.02383E5	3094.94527	83.09736	-30382.48737
0.24428	1.02301E5	3093.94527	82.84663	-30418.26544
0.24330	1.02218E5	3092.94527	82.59778	-30453.81721
0.24232	1.02136E5	3091.94527	82.35081	-30489.14445
0.24135	1.02054E5	3090.94527	82.10569	-30524.24895
0.24038	1.01972E5	3089.94527	81.86240	-30559.13244
0.23942	1.01890E5	3088.94527	81.62093	-30593.79666
0.23846	1.01809E5	3087.94527	81.38127	-30628.24332
0.23751	1.01728E5	3086.94527	81.14339	-30662.47413
0.23657	1.01647E5	3085.94527	80.90728	-30696.49077
0.23563	1.01566E5	3084.94527	80.67292	-30730.29490
0.23470	1.01486E5	3083.94527	80.44029	-30763.88817
0.23377	1.01405E5	3082.94527	80.20939	-30797.27224
0.23284	1.01325E5	3081.94527	79.98018	-30830.44871
0.23192	1.01246E5	3080.94527	79.75267	-30863.41919
0.23101	1.01166E5	3079.94527	79.52683	-30896.18528
0.23010	1.01087E5	3078.94527	79.30265	-30928.74855
0.22920	1.01008E5	3077.94527	79.08010	-30961.11057
0.22830	1.00929E5	3076.94527	78.85919	-30993.27288
0.22741	1.00850E5	3075.94527	78.63988	-31025.23701
0.22652	1.00772E5	3074.94527	78.42218	-31057.00449
0.22563	1.00694E5	3073.94527	78.20605	-31088.57682
0.22476	1.00616E5	3072.94527	77.99150	-31119.95549
0.22388	1.00538E5	3071.94527	77.77849	-31151.14199
0.22301	1.00460E5	3070.94527	77.56703	-31182.13776
0.22215	1.00383E5	3069.94527	77.35709	-31212.94428
0.22129	1.00306E5	3068.94527	77.14867	-31243.56296
0.22043	1.00229E5	3067.94527	76.94174	-31273.99525
0.21958	1.00152E5	3066.94527	76.73630	-31304.24254
0.21874	1.00076E5	3065.94527	76.53232	-31334.30624
0.21790	99999.17287	3064.94527	76.32981	-31364.18773
0.21706	99923.04413	3063.94527	76.12874	-31393.88840
0.21623	99847.11503	3062.94527	75.92910	-31423.40959
0.21540	99771.38414	3061.94527	75.73089	-31452.75266
0.21458	99695.85007	3060.94527	75.53407	-31481.91894
0.21376	99620.51141	3059.94527	75.33866	-31510.90976
0.21295	99545.36679	3058.94527	75.14462	-31539.72643
0.21214	99470.41484	3057.94527	74.95195	-31568.37025
0.21133	99395.65420	3056.94527	74.76064	-31596.84252
0.21053	99321.08352	3055.94527	74.57068	-31625.14450
0.20974	99246.70148	3054.94527	74.38204	-31653.27747
0.20894	99172.50675	3053.94527	74.19473	-31681.24267
0.20816	99098.49802	3052.94527	74.00873	-31709.04137
0.20737	99024.67400	3051.94527	73.82402	-31736.67477
0.20659	98951.03339	3050.94527	73.64061	-31764.14412
0.20582	98877.57493	3049.94527	73.45846	-31791.45061
0.20505	98804.29735	3048.94527	73.27758	-31818.59545
0.20428	98731.19939	3047.94527	73.09796	-31845.57983
0.20351	98658.27982	3046.94527	72.91957	-31872.40493
0.20276	98585.53740	3045.94527	72.74242	-31899.07191
0.20200	98512.97091	3044.94527	72.56649	-31925.58193
0.20125	98440.57915	3043.94527	72.39176	-31951.93615
0.20050	98368.36091	3042.94527	72.21824	-31978.13570
0.19976	98296.31501	3041.94527	72.04590	-32004.18170
0.19902	98224.44026	3040.94527	71.87474	-32030.07528
0.19828	98152.73551	3039.94527	71.70476	-32055.81755
0.19755	98081.19958	3038.94527	71.53592	-32081.40960
0.19682	98009.83134	3037.94527	71.36824	-32106.85252
0.19610	97938.62965	3036.94527	71.20170	-32132.14740
0.19538	97867.59337	3035.94527	71.03628	-32157.29529
0.19466	97796.72139	3034.94527	70.87198	-32182.29727
0.19395	97726.01259	3033.94527	70.70879	-32207.15439
0.19324	97655.46589	3032.94527	70.54670	-32231.86768
0.19253	97585.08019	3031.94527	70.38570	-32256.43818
0.19183	97514.85440	3030.94527	70.22578	-32280.86692
0.19113	97444.78747	3029.94527	70.06694	-32305.15492
0.19044	97374.87831	3028.94527	69.90915	-32329.30317
0.18975	97305.12589	3027.94527	69.75242	-32353.31268
0.18906	97235.52916	3026.94527	69.59673	-32377.18444
0.18837	97166.08707	3025.94527	69.44208	-32400.91943
0.18769	97096.79862	3024.94527	69.28846	-32424.51862
0.18702	97027.66276	3023.94527	69.13585	-32447.98297
0.18634	96958.67851	3022.94527	68.98426	-32471.31346
0.18567	96889.84485	3021.94527	68.83366	-32494.51101
0.18500	96821.16079	3020.94527	68.68406	-32517.57658
0.18434	96752.62536	3019.94527	68.53544	-32540.51109
0.18368	96684.23756	3018.94527	68.38779	-32563.31548
0.18302	96615.99644	3017.94527	68.24112	-32585.99065
0.18237	96547.90104	3016.94527	68.09540	-32608.53751
0.18172	96479.95040	3015.94527	67.95064	-32630.95697
0.18107	96412.14358	3014.94527	67.80682	-32653.24993
0.18043	96344.47965	3013.94527	67.66393	-32675.41725
0.17979	96276.95768	3012.94527	67.52198	-32697.45984
0.17915	96209.57674	3011.94527	67.38094	-32719.37855
0.17852	96142.33592	3010.94527	67.24082	-32741.17425
0.17789	96075.23432	3009.94527	67.10160	-32762.84780
0.17726	96008.27104	3008.94527	66.96328	-32784.40005
0.17663	95941.44520	3007.94527	66.82585	-32805.83184
0.17601	95874.75590	3006.94527	66.68930	-32827.14400
0.17539	95808.20227	3005.94527	66.55363	-32848.33736
0.17478	95741.78345	3004.94527	66.41882	-32869.41276
0.17416	95675.49857	3003.94527	66.28488	-32890.37099
0.17355	95609.34678	3002.94527	66.15179	-32911.21287
0.17295	95543.32723	3001.94527	66.01955	-32931.93920
0.17234	95477.43909	3000.94527	65.88815	-32952.55078
0.17174	95411.68151	2999.94527	65.75758	-32973.04838
0.17115	95346.05367	2998.94527	65.62784	-32993.43281
0.17055	95280.55475	2997.94527	65.49892	-33013.70482
0.16996	95215.18394	2996.94527	65.37081	-33033.86520
0.16937	95149.94044	2995.94527	65.24351	-33053.91469
0.16878	95084.82343	2994.94527	65.11700	-33073.85407
0.16820	95019.83214	2993.94527	64.99130	-33093.68407
0.16762	94954.96576	2992.94527	64.86637	-33113.40544
0.16704	94890.22353	2991.94527	64.74223	-33133.01893
0.16647	94825.60466	2990.94527	64.61887	-33152.52526
0.16590	94761.10839	2989.94527	64.49627	-33171.92516
0.16533	94696.73396	2988.94527	64.37443	-33191.21935
0.16476	94632.48060	2987.94527	64.25335	-33210.40854
0.16420	94568.34758	2986.94527	64.13302	-33229.49344
0.16364	94504.33414	2985.94527	64.01344	-33248.47476
0.16308	94440.43955	2984.94527	63.89459	-33267.35319
0.16252	94376.66308	2983.94527	63.77647	-33286.12942
0.16197	94313.00400	2982.94527	63.65908	-33304.80415
0.16142	94249.46159	2981.94527	63.54241	-33323.37804
0.16087	94186.03513	2980.94527	63.42646	-33341.85178
0.16033	94122.72392	2979.94527	63.31121	-33360.22603
0.15978	94059.52725	2978.94527	63.19667	-33378.50146
0.15924	93996.44443	2977.94527	63.08282	-33396.67873
0.15871	93933.47477	2976.94527	62.96967	-33414.75849
0.15817	93870.61757	2975.94527	62.85720	-33432.74139
