Mole fraction of liquid	Heat per mole [J]	Temperature [K]	Apparent heat capacity per mole [J/K]	Latent heat per mole [J]
1.00000	1.53844E5	3464.23460	79.32607	-2.91038E-11
0.99994	1.53837E5	3464.13897	79.32607	-2.84111
0.98902	1.53272E5	3463.13897	564.69215	-505.55539
0.97827	1.52716E5	3462.13897	556.60614	-1000.35602
0.96768	1.52167E5	3461.13897	548.67970	-1487.40004
0.95726	1.51626E5	3460.13897	540.90901	-1966.84072
0.94699	1.51093E5	3459.13897	533.29037	-2438.82767
0.93687	1.50567E5	3458.13897	525.82018	-2903.50696
0.92690	1.50048E5	3457.13897	518.49494	-3361.02117
0.91708	1.49537E5	3456.13897	511.31123	-3811.50956
0.90741	1.49033E5	3455.13897	504.26575	-4255.10810
0.89788	1.48535E5	3454.13897	497.35528	-4691.94959
0.88848	1.48045E5	3453.13897	490.57668	-5122.16374
0.87923	1.47561E5	3452.13897	483.92691	-5545.87725
0.87011	1.47084E5	3451.13897	477.40300	-5963.21391
0.86112	1.46613E5	3450.13897	471.00207	-6374.29464
0.85226	1.46148E5	3449.13897	464.72130	-6779.23761
0.84352	1.45689E5	3448.13897	458.55797	-7178.15829
0.83491	1.45237E5	3447.13897	452.50942	-7571.16952
0.82643	1.44790E5	3446.13897	446.57305	-7958.38161
0.81806	1.44349E5	3445.13897	440.74635	-8339.90236
0.80981	1.43914E5	3444.13897	435.02686	-8715.83716
0.80168	1.43485E5	3443.13897	429.41220	-9086.28905
0.79366	1.43061E5	3442.13897	423.90003	-9451.35876
0.78576	1.42643E5	3441.13897	418.48808	-9811.14480
0.77796	1.42229E5	3440.13897	413.17416	-10165.74350
0.77027	1.41821E5	3439.13897	407.95611	-10515.24907
0.76269	1.41419E5	3438.13897	402.83183	-10859.75365
0.75521	1.41021E5	3437.13897	397.79928	-11199.34738
0.74783	1.40628E5	3436.13897	392.85647	-11534.11842
0.74056	1.40240E5	3435.13897	388.00147	-11864.15303
0.73338	1.39857E5	3434.13897	383.23238	-12189.53562
0.72630	1.39478E5	3433.13897	378.54736	-12510.34875
0.71931	1.39104E5	3432.13897	373.94461	-12826.67325
0.71242	1.38735E5	3431.13897	369.42239	-13138.58820
0.70562	1.38370E5	3430.13897	364.97898	-13446.17100
0.69891	1.38009E5	3429.13897	360.61272	-13749.49743
0.69229	1.37653E5	3428.13897	356.32199	-14048.64164
0.68576	1.37301E5	3427.13897	352.10520	-14343.67624
0.67931	1.36953E5	3426.13897	347.96081	-14634.67231
0.67295	1.36609E5	3425.13897	343.88732	-14921.69946
0.66667	1.36269E5	3424.13897	339.88324	-15204.82584
0.66047	1.35933E5	3423.13897	335.94715	-15484.11818
0.65436	1.35601E5	3422.13897	332.07765	-15759.64185
0.64832	1.35273E5	3421.13897	328.27337	-16031.46087
0.64236	1.34948E5	3420.13897	324.53298	-16299.63793
0.63647	1.34627E5	3419.13897	320.85517	-16564.23446
0.63066	1.34310E5	3418.13897	317.23868	-16825.31064
0.62493	1.33996E5	3417.13897	313.68227	-17082.92541
0.61927	1.33686E5	3416.13897	310.18473	-17337.13654
0.61367	1.33380E5	3415.13897	306.74487	-17588.00062
0.60815	1.33076E5	3414.13897	303.36155	-17835.57312
0.60270	1.32776E5	3413.13897	300.03363	-18079.90838
0.59732	1.32479E5	3412.13897	296.76001	-18321.05968
0.59200	1.32186E5	3411.13897	293.53962	-18559.07922
0.58675	1.31895E5	3410.13897	290.37142	-18794.01819
0.58157	1.31608E5	3409.13897	287.25436	-19025.92676
0.57644	1.31324E5	3408.13897	284.18746	-19254.85410
0.57139	1.31043E5	3407.13897	281.16972	-19480.84844
0.56639	1.30765E5	3406.13897	278.20021	-19703.95705
0.56145	1.30489E5	3405.13897	275.27797	-19924.22629
0.55658	1.30217E5	3404.13897	272.40210	-20141.70163
0.55176	1.29947E5	3403.13897	269.57171	-20356.42763
0.54700	1.29681E5	3402.13897	266.78592	-20568.44804
0.54230	1.29417E5	3401.13897	264.04387	-20777.80572
0.53765	1.29155E5	3400.13897	261.34474	-20984.54275
0.53306	1.28897E5	3399.13897	258.68771	-21188.70038
0.52853	1.28640E5	3398.13897	256.07198	-21390.31910
0.52405	1.28387E5	3397.13897	253.49678	-21589.43860
0.51962	1.28136E5	3396.13897	250.96133	-21786.09787
0.51524	1.27888E5	3395.13897	248.46490	-21980.33512
0.51092	1.27642E5	3394.13897	246.00676	-22172.18786
0.50664	1.27398E5	3393.13897	243.58619	-22361.69291
0.50242	1.27157E5	3392.13897	241.20250	-22548.88640
0.49824	1.26918E5	3391.13897	238.85499	-22733.80377
0.49412	1.26681E5	3390.13897	236.54302	-22916.47983
0.49004	1.26447E5	3389.13897	234.26592	-23096.94873
0.48601	1.26215E5	3388.13897	232.02305	-23275.24401
0.48202	1.25985E5	3387.13897	229.81379	-23451.39856
0.47808	1.25758E5	3386.13897	227.63752	-23625.44472
0.47418	1.25532E5	3385.13897	225.49366	-23797.41419
0.47033	1.25309E5	3384.13897	223.38161	-23967.33814
0.46652	1.25087E5	3383.13897	221.30079	-24135.24714
0.46276	1.24868E5	3382.13897	219.25065	-24301.17123
0.45904	1.24651E5	3381.13897	217.23064	-24465.13989
0.45536	1.24436E5	3380.13897	215.24022	-24627.18210
0.45172	1.24222E5	3379.13897	213.27886	-24787.32630
0.44812	1.24011E5	3378.13897	211.34605	-24945.60044
0.44456	1.23802E5	3377.13897	209.44128	-25102.03194
0.44104	1.23594E5	3376.13897	207.56405	-25256.64778
0.43756	1.23388E5	3375.13897	205.71389	-25409.47443
0.43411	1.23184E5	3374.13897	203.89032	-25560.53791
0.43071	1.22982E5	3373.13897	202.09287	-25709.86378
0.42734	1.22782E5	3372.13897	200.32109	-25857.47715
0.42401	1.22583E5	3371.13897	198.57453	-26003.40270
0.42072	1.22387E5	3370.13897	196.85275	-26147.66467
0.41746	1.22191E5	3369.13897	195.15534	-26290.28689
0.41423	1.21998E5	3368.13897	193.48186	-26431.29277
0.41104	1.21806E5	3367.13897	191.83191	-26570.70533
0.40789	1.21616E5	3366.13897	190.20509	-26708.54717
0.40477	1.21427E5	3365.13897	188.60100	-26844.84054
0.40168	1.21240E5	3364.13897	187.01925	-26979.60727
0.39862	1.21055E5	3363.13897	185.45946	-27112.86885
0.39560	1.20871E5	3362.13897	183.92128	-27244.64638
0.39261	1.20689E5	3361.13897	182.40432	-27374.96063
0.38965	1.20508E5	3360.13897	180.90824	-27503.83199
0.38672	1.20328E5	3359.13897	179.43268	-27631.28054
0.38383	1.20150E5	3358.13897	177.97730	-27757.32599
0.38096	1.19974E5	3357.13897	176.54176	-27881.98775
0.37812	1.19799E5	3356.13897	175.12575	-28005.28488
0.37531	1.19625E5	3355.13897	173.72892	-28127.23615
0.37253	1.19452E5	3354.13897	172.35097	-28247.85999
0.36978	1.19281E5	3353.13897	170.99159	-28367.17454
0.36706	1.19112E5	3352.13897	169.65046	-28485.19766
0.36437	1.18944E5	3351.13897	168.32730	-28601.94687
0.36170	1.18776E5	3350.13897	167.02180	-28717.43946
0.35906	1.18611E5	3349.13897	165.73369	-28831.69238
0.35645	1.18446E5	3348.13897	164.46267	-28944.72236
0.35386	1.18283E5	3347.13897	163.20848	-29056.54580
0.35130	1.18121E5	3346.13897	161.97083	-29167.17889
0.34877	1.17960E5	3345.13897	160.74948	-29276.63752
0.34626	1.17801E5	3344.13897	159.54414	-29384.93733
0.34378	1.17642E5	3343.13897	158.35457	-29492.09373
0.34132	1.17485E5	3342.13897	157.18052	-29598.12187
0.33888	1.17329E5	3341.13897	156.02173	-29703.03664
0.33647	1.17174E5	3340.13897	154.87797	-29806.85273
0.33409	1.17021E5	3339.13897	153.74900	-29909.58456
0.33172	1.16868E5	3338.13897	152.63459	-30011.24634
0.32938	1.16716E5	3337.13897	151.53450	-30111.85205
0.32707	1.16566E5	3336.13897	150.44851	-30211.41547
0.32477	1.16417E5	3335.13897	149.37640	-30309.95013
0.32250	1.16268E5	3334.13897	148.31796	-30407.46937
0.32025	1.16121E5	3333.13897	147.27297	-30503.98632
0.31803	1.15975E5	3332.13897	146.24122	-30599.51389
0.31582	1.15830E5	3331.13897	145.22251	-30694.06482
0.31364	1.15685E5	3330.13897	144.21664	-30787.65161
0.31147	1.15542E5	3329.13897	143.22340	-30880.28660
0.30933	1.15400E5	3328.13897	142.24261	-30971.98193
0.30721	1.15259E5	3327.13897	141.27408	-31062.74956
0.30511	1.15118E5	3326.13897	140.31761	-31152.60124
0.30302	1.14979E5	3325.13897	139.37303	-31241.54859
0.30096	1.14841E5	3324.13897	138.44015	-31329.60299
0.29892	1.14703E5	3323.13897	137.51880	-31416.77570
0.29690	1.14566E5	3322.13897	136.60880	-31503.07779
0.29489	1.14431E5	3321.13897	135.70998	-31588.52015
0.29291	1.14296E5	3320.13897	134.82217	-31673.11352
0.29094	1.14162E5	3319.13897	133.94522	-31756.86848
0.28899	1.14029E5	3318.13897	133.07894	-31839.79544
0.28706	1.13897E5	3317.13897	132.22320	-31921.90466
0.28515	1.13765E5	3316.13897	131.37782	-32003.20626
0.28326	1.13635E5	3315.13897	130.54266	-32083.71018
0.28138	1.13505E5	3314.13897	129.71757	-32163.42624
0.27952	1.13376E5	3313.13897	128.90240	-32242.36410
0.27768	1.13248E5	3312.13897	128.09699	-32320.53328
0.27585	1.13121E5	3311.13897	127.30121	-32397.94316
0.27404	1.12994E5	3310.13897	126.51492	-32474.60298
0.27225	1.12868E5	3309.13897	125.73798	-32550.52185
0.27047	1.12743E5	3308.13897	124.97025	-32625.70874
0.26871	1.12619E5	3307.13897	124.21160	-32700.17249
0.26697	1.12496E5	3306.13897	123.46189	-32773.92182
0.26524	1.12373E5	3305.13897	122.72100	-32846.96532
0.26353	1.12251E5	3304.13897	121.98880	-32919.31145
0.26183	1.12130E5	3303.13897	121.26517	-32990.96854
0.26015	1.12009E5	3302.13897	120.54998	-33061.94482
0.25848	1.11889E5	3301.13897	119.84311	-33132.24840
0.25683	1.11770E5	3300.13897	119.14445	-33201.88724
0.25519	1.11652E5	3299.13897	118.45387	-33270.86924
0.25357	1.11534E5	3298.13897	117.77126	-33339.20215
0.25196	1.11417E5	3297.13897	117.09651	-33406.89361
0.25036	1.11300E5	3296.13897	116.42951	-33473.95116
0.24878	1.11185E5	3295.13897	115.77015	-33540.38225
0.24722	1.11070E5	3294.13897	115.11832	-33606.19420
0.24566	1.10955E5	3293.13897	114.47391	-33671.39423
0.24412	1.10841E5	3292.13897	113.83683	-33735.98947
0.24260	1.10728E5	3291.13897	113.20696	-33799.98694
0.24109	1.10616E5	3290.13897	112.58422	-33863.39357
0.23959	1.10504E5	3289.13897	111.96849	-33926.21618
0.23810	1.10392E5	3288.13897	111.35969	-33988.46151
0.23663	1.10281E5	3287.13897	110.75771	-34050.13621
0.23516	1.10171E5	3286.13897	110.16247	-34111.24681
0.23372	1.10062E5	3285.13897	109.57387	-34171.79977
0.23228	1.09953E5	3284.13897	108.99181	-34231.80147
0.23086	1.09844E5	3283.13897	108.41622	-34291.25819
0.22944	1.09736E5	3282.13897	107.84700	-34350.17611
0.22804	1.09629E5	3281.13897	107.28406	-34408.56136
0.22666	1.09522E5	3280.13897	106.72732	-34466.41995
0.22528	1.09416E5	3279.13897	106.17670	-34523.75783
0.22392	1.09311E5	3278.13897	105.63211	-34580.58087
0.22256	1.09206E5	3277.13897	105.09347	-34636.89484
0.22122	1.09101E5	3276.13897	104.56070	-34692.70546
0.21989	1.08997E5	3275.13897	104.03373	-34748.01836
0.21857	1.08893E5	3274.13897	103.51247	-34802.83907
0.21726	1.08790E5	3273.13897	102.99685	-34857.17310
0.21596	1.08688E5	3272.13897	102.48679	-34911.02583
0.21468	1.08586E5	3271.13897	101.98222	-34964.40261
0.21340	1.08484E5	3270.13897	101.48307	-35017.30869
0.21214	1.08383E5	3269.13897	100.98926	-35069.74926
0.21088	1.08283E5	3268.13897	100.50072	-35121.72945
0.20964	1.08183E5	3267.13897	100.01740	-35173.25432
0.20840	1.08083E5	3266.13897	99.53920	-35224.32884
0.20718	1.07984E5	3265.13897	99.06608	-35274.95795
0.20596	1.07886E5	3264.13897	98.59796	-35325.14649
0.20476	1.07788E5	3263.13897	98.13477	-35374.89927
0.20356	1.07690E5	3262.13897	97.67646	-35424.22101
0.20238	1.07593E5	3261.13897	97.22296	-35473.11639
0.20120	1.07496E5	3260.13897	96.77420	-35521.59000
0.20004	1.07400E5	3259.13897	96.33014	-35569.64640
0.19888	1.07304E5	3258.13897	95.89069	-35617.29008
0.19773	1.07208E5	3257.13897	95.45581	-35664.52547
0.19659	1.07113E5	3256.13897	95.02544	-35711.35693
0.19546	1.07019E5	3255.13897	94.59952	-35757.78880
0.19434	1.06924E5	3254.13897	94.17799	-35803.82533
0.19323	1.06831E5	3253.13897	93.76080	-35849.47072
0.19213	1.06737E5	3252.13897	93.34789	-35894.72913
0.19104	1.06644E5	3251.13897	92.93921	-35939.60467
0.18995	1.06552E5	3250.13897	92.53470	-35984.10137
0.18887	1.06460E5	3249.13897	92.13430	-36028.22323
0.18781	1.06368E5	3248.13897	91.73798	-36071.97420
0.18675	1.06277E5	3247.13897	91.34568	-36115.35818
0.18570	1.06186E5	3246.13897	90.95734	-36158.37900
0.18465	1.06095E5	3245.13897	90.57292	-36201.04048
0.18362	1.06005E5	3244.13897	90.19236	-36243.34635
0.18259	1.05915E5	3243.13897	89.81563	-36285.30032
0.18157	1.05826E5	3242.13897	89.44267	-36326.90605
0.18056	1.05737E5	3241.13897	89.07343	-36368.16714
0.17956	1.05648E5	3240.13897	88.70787	-36409.08717
0.17856	1.05560E5	3239.13897	88.34595	-36449.66965
0.17757	1.05472E5	3238.13897	87.98762	-36489.91807
0.17659	1.05384E5	3237.13897	87.63282	-36529.83585
0.17562	1.05297E5	3236.13897	87.28153	-36569.42638
0.17465	1.05210E5	3235.13897	86.93370	-36608.69303
0.17370	1.05123E5	3234.13897	86.58929	-36647.63909
0.17274	1.05037E5	3233.13897	86.24825	-36686.26783
0.17180	1.04951E5	3232.13897	85.91054	-36724.58249
0.17086	1.04865E5	3231.13897	85.57612	-36762.58624
0.16993	1.04780E5	3230.13897	85.24495	-36800.28225
0.16901	1.04695E5	3229.13897	84.91700	-36837.67361
0.16810	1.04611E5	3228.13897	84.59223	-36874.76341
0.16719	1.04526E5	3227.13897	84.27058	-36911.55468
0.16629	1.04442E5	3226.13897	83.95204	-36948.05042
0.16539	1.04359E5	3225.13897	83.63656	-36984.25359
0.16450	1.04275E5	3224.13897	83.32410	-37020.16712
0.16362	1.04192E5	3223.13897	83.01463	-37055.79390
0.16275	1.04110E5	3222.13897	82.70811	-37091.13679
0.16188	1.04027E5	3221.13897	82.40451	-37126.19861
0.16101	1.03945E5	3220.13897	82.10380	-37160.98215
0.16016	1.03863E5	3219.13897	81.80593	-37195.49017
0.15931	1.03782E5	3218.13897	81.51087	-37229.72538
0.15846	1.03701E5	3217.13897	81.21860	-37263.69048
0.15763	1.03620E5	3216.13897	80.92908	-37297.38814
0.15680	1.03539E5	3215.13897	80.64227	-37330.82097
0.15597	1.03459E5	3214.13897	80.35815	-37363.99157
0.15515	1.03379E5	3213.13897	80.07668	-37396.90251
0.15434	1.03299E5	3212.13897	79.79783	-37429.55632
0.15353	1.03219E5	3211.13897	79.52158	-37461.95551
0.15273	1.03140E5	3210.13897	79.24788	-37494.10255
0.15193	1.03061E5	3209.13897	78.97672	-37525.99990
0.15114	1.02982E5	3208.13897	78.70806	-37557.64997
0.15036	1.02904E5	3207.13897	78.44188	-37589.05515
0.14958	1.02826E5	3206.13897	78.17814	-37620.21781
0.14881	1.02748E5	3205.13897	77.91681	-37651.14027
0.14804	1.02670E5	3204.13897	77.65788	-37681.82485
0.14728	1.02593E5	3203.13897	77.40130	-37712.27384
0.14652	1.02516E5	3202.13897	77.14706	-37742.48947
0.14577	1.02439E5	3201.13897	76.89513	-37772.47400
0.14502	1.02362E5	3200.13897	76.64548	-37802.22960
0.14428	1.02286E5	3199.13897	76.39809	-37831.75848
0.14355	1.02210E5	3198.13897	76.15293	-37861.06278
0.14282	1.02134E5	3197.13897	75.90997	-37890.14462
0.14209	1.02058E5	3196.13897	75.66919	-37919.00612
0.14137	1.01983E5	3195.13897	75.43056	-37947.64936
0.14066	1.01907E5	3194.13897	75.19407	-37976.07639
0.13995	1.01832E5	3193.13897	74.95968	-38004.28924
0.13924	1.01758E5	3192.13897	74.72738	-38032.28993
0.13854	1.01683E5	3191.13897	74.49714	-38060.08044
0.13785	1.01609E5	3190.13897	74.26893	-38087.66274
0.13716	1.01535E5	3189.13897	74.04274	-38115.03878
0.13647	1.01461E5	3188.13897	73.81854	-38142.21047
0.13579	1.01387E5	3187.13897	73.59631	-38169.17972
0.13511	1.01314E5	3186.13897	73.37603	-38195.94841
0.13444	1.01241E5	3185.13897	73.15767	-38222.51838
0.13377	1.01168E5	3184.13897	72.94122	-38248.89149
0.13311	1.01095E5	3183.13897	72.72666	-38275.06955
0.13245	1.01023E5	3182.13897	72.51395	-38301.05435
0.13180	1.00950E5	3181.13897	72.30309	-38326.84767
0.13115	1.00878E5	3180.13897	72.09406	-38352.45127
0.13051	1.00806E5	3179.13897	71.88682	-38377.86689
0.12987	1.00735E5	3178.13897	71.68137	-38403.09624
0.12923	1.00663E5	3177.13897	71.47768	-38428.14103
0.12860	1.00592E5	3176.13897	71.27574	-38453.00293
0.12797	1.00521E5	3175.13897	71.07552	-38477.68362
0.12735	1.00450E5	3174.13897	70.87701	-38502.18472
0.12673	1.00379E5	3173.13897	70.68019	-38526.50788
0.12611	1.00309E5	3172.13897	70.48504	-38550.65470
0.12550	1.00239E5	3171.13897	70.29153	-38574.62677
0.12490	1.00169E5	3170.13897	70.09967	-38598.42567
0.12429	1.00099E5	3169.13897	69.90942	-38622.05295
0.12370	1.00029E5	3168.13897	69.72077	-38645.51015
0.12310	99959.37508	3167.13897	69.53370	-38668.79880
0.12251	99890.02688	3166.13897	69.34820	-38691.92041
0.12192	99820.86263	3165.13897	69.16425	-38714.87646
0.12134	99751.88080	3164.13897	68.98183	-38737.66843
0.12076	99683.07987	3163.13897	68.80093	-38760.29778
0.12019	99614.45834	3162.13897	68.62152	-38782.76596
0.11961	99546.01474	3161.13897	68.44361	-38805.07439
0.11905	99477.74758	3160.13897	68.26716	-38827.22448
0.11848	99409.65542	3159.13897	68.09216	-38849.21764
0.11792	99341.73682	3158.13897	67.91860	-38871.05525
0.11737	99273.99036	3157.13897	67.74646	-38892.73868
0.11681	99206.41462	3156.13897	67.57574	-38914.26927
0.11626	99139.00822	3155.13897	67.40640	-38935.64838
0.11572	99071.76978	3154.13897	67.23844	-38956.87732
0.11517	99004.69793	3153.13897	67.07185	-38977.95741
0.11464	98937.79132	3152.13897	66.90661	-38998.88995
0.11410	98871.04861	3151.13897	66.74271	-39019.67622
0.11357	98804.46849	3150.13897	66.58012	-39040.31749
0.11304	98738.04964	3149.13897	66.41885	-39060.81503
0.11251	98671.79077	3148.13897	66.25887	-39081.17006
0.11199	98605.69060	3147.13897	66.10017	-39101.38384
0.11147	98539.74785	3146.13897	65.94274	-39121.45757
0.11096	98473.96128	3145.13897	65.78657	-39141.39246
0.11045	98408.32964	3144.13897	65.63164	-39161.18971
0.10994	98342.85170	3143.13897	65.47794	-39180.85050
0.10943	98277.52624	3142.13897	65.32546	-39200.37600
0.10893	98212.35206	3141.13897	65.17418	-39219.76736
0.10843	98147.32796	3140.13897	65.02410	-39239.02573
0.10793	98082.45277	3139.13897	64.87519	-39258.15225
0.10744	98017.72531	3138.13897	64.72746	-39277.14803
0.10695	97953.14443	3137.13897	64.58088	-39296.01419
0.10646	97888.70897	3136.13897	64.43545	-39314.75182
0.10598	97824.41782	3135.13897	64.29115	-39333.36202
0.10550	97760.26985	3134.13897	64.14798	-39351.84586
0.10502	97696.26393	3133.13897	64.00591	-39370.20441
0.10455	97632.39899	3132.13897	63.86495	-39388.43872
0.10407	97568.67392	3131.13897	63.72507	-39406.54985
0.10361	97505.08764	3130.13897	63.58627	-39424.53881
0.10314	97441.63910	3129.13897	63.44854	-39442.40664
0.10268	97378.32722	3128.13897	63.31187	-39460.15435
0.10222	97315.15098	3127.13897	63.17624	-39477.78294
0.10176	97252.10933	3126.13897	63.04165	-39495.29341
0.10130	97189.20124	3125.13897	62.90809	-39512.68673
0.10085	97126.42570	3124.13897	62.77554	-39529.96389
0.10040	97063.78170	3123.13897	62.64400	-39547.12585
0.09996	97001.26826	3122.13897	62.51345	-39564.17356
0.09951	96938.88437	3121.13897	62.38388	-39581.10796
0.09907	96876.62907	3120.13897	62.25530	-39597.92999
0.09863	96814.50140	3119.13897	62.12768	-39614.64058
0.09820	96752.50038	3118.13897	62.00102	-39631.24065
0.09776	96690.62508	3117.13897	61.87530	-39647.73109
0.09733	96628.87455	3116.13897	61.75053	-39664.11282
0.09691	96567.24788	3115.13897	61.62668	-39680.38672
0.09648	96505.74412	3114.13897	61.50375	-39696.55367
0.09606	96444.36238	3113.13897	61.38174	-39712.61454
0.09564	96383.10176	3112.13897	61.26063	-39728.57020
0.09522	96321.96135	3111.13897	61.14041	-39744.42151
0.09480	96260.94027	3110.13897	61.02108	-39760.16930
0.09439	96200.03765	3109.13897	60.90262	-39775.81443
0.09398	96139.25262	3108.13897	60.78503	-39791.35772
0.09357	96078.58431	3107.13897	60.66831	-39806.80000
0.09317	96018.03188	3106.13897	60.55243	-39822.14207
0.09277	95957.59447	3105.13897	60.43740	-39837.38475
0.09236	95897.27127	3104.13897	60.32321	-39852.52884
0.09197	95837.06143	3103.13897	60.20984	-39867.57512
0.09157	95776.96414	3102.13897	60.09729	-39882.52439
0.09118	95716.97858	3101.13897	59.98556	-39897.37741
0.09079	95657.10395	3100.13897	59.87463	-39912.13496
0.09040	95597.33946	3099.13897	59.76449	-39926.79780
0.09001	95537.68432	3098.13897	59.65515	-39941.36667
0.08963	95478.13773	3097.13897	59.54658	-39955.84234
0.08924	95418.69894	3096.13897	59.43879	-39970.22554
0.08886	95359.36717	3095.13897	59.33177	-39984.51700
0.08848	95300.14165	3094.13897	59.22551	-39998.71744
0.08811	95241.02165	3093.13897	59.12000	-40012.82760
0.08774	95182.00641	3092.13897	59.01524	-40026.84817
0.08736	95123.09519	3091.13897	58.91122	-40040.77987
0.08700	95064.28726	3090.13897	58.80793	-40054.62339
0.08663	95005.58190	3089.13897	58.70536	-40068.37943
0.08626	94946.97839	3088.13897	58.60351	-40082.04867
0.08590	94888.47601	3087.13897	58.50238	-40095.63179
0.08554	94830.07406	3086.13897	58.40195	-40109.12946
0.08518	94771.77185	3085.13897	58.30221	-40122.54235
0.08482	94713.56867	3084.13897	58.20318	-40135.87113
0.08447	94655.46385	3083.13897	58.10482	-40149.11643
