Mole fraction of liquid	Heat per mole [J]	Temperature [K]	Apparent heat capacity per mole [J/K]	Latent heat per mole [J]
1.00000	1.59954E5	3561.80269	106.00293	0.00000
0.99989	1.59944E5	3561.70706	106.00293	-5.20988
0.98094	1.58960E5	3560.70706	984.37720	-923.83236
0.96249	1.58001E5	3559.70706	959.39541	-1817.79854
0.94452	1.57065E5	3558.70706	935.25740	-2687.94381
0.92701	1.56153E5	3557.70706	911.92876	-3535.06948
0.90995	1.55264E5	3556.70706	889.37669	-4359.94431
0.89333	1.54396E5	3555.70706	867.56998	-5163.30609
0.87714	1.53550E5	3554.70706	846.47886	-5945.86314
0.86134	1.52724E5	3553.70706	826.07496	-6708.29561
0.84595	1.51918E5	3552.70706	806.33122	-7451.25685
0.83093	1.51130E5	3551.70706	787.22184	-8175.37460
0.81629	1.50362E5	3550.70706	768.72219	-8881.25222
0.80200	1.49611E5	3549.70706	750.80876	-9569.46972
0.78806	1.48877E5	3548.70706	733.45909	-10240.58490
0.77446	1.48161E5	3547.70706	716.65175	-10895.13428
0.76119	1.47460E5	3546.70706	700.36625	-11533.63409
0.74823	1.46776E5	3545.70706	684.58300	-12156.58113
0.73557	1.46106E5	3544.70706	669.28327	-12764.45367
0.72322	1.45452E5	3543.70706	654.44917	-13357.71221
0.71115	1.44812E5	3542.70706	640.06355	-13936.80029
0.69936	1.44186E5	3541.70706	626.11003	-14502.14522
0.68784	1.43573E5	3540.70706	612.57292	-15054.15873
0.67659	1.42974E5	3539.70706	599.43719	-15593.23769
0.66559	1.42387E5	3538.70706	586.68844	-16119.76472
0.65484	1.41813E5	3537.70706	574.31289	-16634.10875
0.64434	1.41250E5	3536.70706	562.29734	-17136.62564
0.63406	1.40700E5	3535.70706	550.62910	-17627.65873
0.62402	1.40161E5	3534.70706	539.29605	-18107.53930
0.61419	1.39632E5	3533.70706	528.28654	-18576.58711
0.60458	1.39115E5	3532.70706	517.58938	-19035.11086
0.59518	1.38607E5	3531.70706	507.19387	-19483.40862
0.58599	1.38110E5	3530.70706	497.08971	-19921.76828
0.57699	1.37623E5	3529.70706	487.26702	-20350.46795
0.56818	1.37145E5	3528.70706	477.71632	-20769.77634
0.55956	1.36677E5	3527.70706	468.42848	-21179.95316
0.55112	1.36218E5	3526.70706	459.39477	-21581.24941
0.54286	1.35767E5	3525.70706	450.60676	-21973.90781
0.53477	1.35325E5	3524.70706	442.05636	-22358.16304
0.52685	1.34891E5	3523.70706	433.73581	-22734.24210
0.51909	1.34466E5	3522.70706	425.63761	-23102.36459
0.51149	1.34048E5	3521.70706	417.75458	-23462.74297
0.50405	1.33638E5	3520.70706	410.07980	-23815.58288
0.49676	1.33235E5	3519.70706	402.60661	-24161.08335
0.48961	1.32840E5	3518.70706	395.32860	-24499.43708
0.48261	1.32452E5	3517.70706	388.23959	-24830.83064
0.47574	1.32070E5	3516.70706	381.33364	-25155.44476
0.46902	1.31696E5	3515.70706	374.60502	-25473.45447
0.46242	1.31328E5	3514.70706	368.04823	-25785.02936
0.45595	1.30966E5	3513.70706	361.65795	-26090.33376
0.44961	1.30610E5	3512.70706	355.42906	-26389.52694
0.44340	1.30261E5	3511.70706	349.35661	-26682.76327
0.43730	1.29918E5	3510.70706	343.43586	-26970.19244
0.43132	1.29580E5	3509.70706	337.66220	-27251.95957
0.42545	1.29248E5	3508.70706	332.03121	-27528.20543
0.41969	1.28921E5	3507.70706	326.53863	-27799.06654
0.41404	1.28600E5	3506.70706	321.18032	-28064.67537
0.40850	1.28284E5	3505.70706	315.95231	-28325.16042
0.40306	1.27973E5	3504.70706	310.85076	-28580.64644
0.39773	1.27668E5	3503.70706	305.87196	-28831.25447
0.39249	1.27367E5	3502.70706	301.01233	-29077.10205
0.38734	1.27070E5	3501.70706	296.26842	-29318.30327
0.38229	1.26779E5	3500.70706	291.63688	-29554.96894
0.37734	1.26492E5	3499.70706	287.11449	-29787.20667
0.37247	1.26209E5	3498.70706	282.69812	-30015.12099
0.36769	1.25930E5	3497.70706	278.38477	-30238.81345
0.36299	1.25656E5	3496.70706	274.17152	-30458.38272
0.35838	1.25386E5	3495.70706	270.05554	-30673.92469
0.35385	1.25120E5	3494.70706	266.03413	-30885.53256
0.34940	1.24858E5	3493.70706	262.10464	-31093.29690
0.34503	1.24600E5	3492.70706	258.26452	-31297.30581
0.34074	1.24345E5	3491.70706	254.51131	-31497.64491
0.33651	1.24094E5	3490.70706	250.84262	-31694.39748
0.33237	1.23847E5	3489.70706	247.25614	-31887.64452
0.32829	1.23603E5	3488.70706	243.74964	-32077.46483
0.32428	1.23363E5	3487.70706	240.32094	-32263.93504
0.32034	1.23126E5	3486.70706	236.96796	-32447.12975
0.31647	1.22893E5	3485.70706	233.68867	-32627.12152
0.31266	1.22662E5	3484.70706	230.48109	-32803.98100
0.30892	1.22435E5	3483.70706	227.34333	-32977.77693
0.30524	1.22210E5	3482.70706	224.27354	-33148.57626
0.30162	1.21989E5	3481.70706	221.26993	-33316.44414
0.29806	1.21771E5	3480.70706	218.33077	-33481.44404
0.29456	1.21555E5	3479.70706	215.45437	-33643.63775
0.29112	1.21343E5	3478.70706	212.63912	-33803.08546
0.28773	1.21133E5	3477.70706	209.88343	-33959.84580
0.28440	1.20926E5	3476.70706	207.18577	-34113.97590
0.28112	1.20721E5	3475.70706	204.54465	-34265.53141
0.27789	1.20519E5	3474.70706	201.95864	-34414.56655
0.27472	1.20320E5	3473.70706	199.42633	-34561.13419
0.27159	1.20123E5	3472.70706	196.94638	-34705.28584
0.26852	1.19928E5	3471.70706	194.51746	-34847.07172
0.26549	1.19736E5	3470.70706	192.13830	-34986.54077
0.26251	1.19546E5	3469.70706	189.80765	-35123.74075
0.25958	1.19359E5	3468.70706	187.52432	-35258.71818
0.25670	1.19173E5	3467.70706	185.28714	-35391.51848
0.25386	1.18990E5	3466.70706	183.09497	-35522.18590
0.25106	1.18809E5	3465.70706	180.94671	-35650.76365
0.24830	1.18631E5	3464.70706	178.84130	-35777.29384
0.24559	1.18454E5	3463.70706	176.77768	-35901.81759
0.24292	1.18279E5	3462.70706	174.75485	-36024.37500
0.24029	1.18106E5	3461.70706	172.77183	-36145.00523
0.23770	1.17935E5	3460.70706	170.82766	-36263.74646
0.23515	1.17767E5	3459.70706	168.92142	-36380.63598
0.23264	1.17600E5	3458.70706	167.05221	-36495.71021
0.23016	1.17434E5	3457.70706	165.21915	-36609.00466
0.22772	1.17271E5	3456.70706	163.42139	-36720.55403
0.22532	1.17109E5	3455.70706	161.65810	-36830.39221
0.22295	1.16949E5	3454.70706	159.92847	-36938.55228
0.22062	1.16791E5	3453.70706	158.23173	-37045.06654
0.21832	1.16634E5	3452.70706	156.56710	-37149.96657
0.21605	1.16480E5	3451.70706	154.93386	-37253.28318
0.21382	1.16326E5	3450.70706	153.33127	-37355.04651
0.21162	1.16174E5	3449.70706	151.75864	-37455.28598
0.20945	1.16024E5	3448.70706	150.21528	-37554.03034
0.20732	1.15876E5	3447.70706	148.70053	-37651.30769
0.20521	1.15728E5	3446.70706	147.21373	-37747.14550
0.20313	1.15583E5	3445.70706	145.75427	-37841.57061
0.20108	1.15438E5	3444.70706	144.32153	-37934.60925
0.19906	1.15295E5	3443.70706	142.91491	-38026.28708
0.19707	1.15154E5	3442.70706	141.53383	-38116.62917
0.19511	1.15014E5	3441.70706	140.17772	-38205.66005
0.19318	1.14875E5	3440.70706	138.84603	-38293.40367
0.19127	1.14737E5	3439.70706	137.53823	-38379.88350
0.18938	1.14601E5	3438.70706	136.25379	-38465.12246
0.18753	1.14466E5	3437.70706	134.99220	-38549.14298
0.18570	1.14332E5	3436.70706	133.75296	-38631.96701
0.18389	1.14200E5	3435.70706	132.53560	-38713.61599
0.18211	1.14068E5	3434.70706	131.33963	-38794.11094
0.18035	1.13938E5	3433.70706	130.16460	-38873.47239
0.17862	1.13809E5	3432.70706	129.01006	-38951.72045
0.17691	1.13681E5	3431.70706	127.87557	-39028.87479
0.17522	1.13555E5	3430.70706	126.76070	-39104.95467
0.17355	1.13429E5	3429.70706	125.66505	-39179.97892
0.17191	1.13304E5	3428.70706	124.58821	-39253.96600
0.17029	1.13181E5	3427.70706	123.52977	-39326.93396
0.16869	1.13058E5	3426.70706	122.48936	-39398.90047
0.16711	1.12937E5	3425.70706	121.46660	-39469.88285
0.16555	1.12816E5	3424.70706	120.46112	-39539.89803
0.16401	1.12697E5	3423.70706	119.47256	-39608.96262
0.16250	1.12578E5	3422.70706	118.50058	-39677.09287
0.16100	1.12461E5	3421.70706	117.54483	-39744.30467
0.15952	1.12344E5	3420.70706	116.60499	-39810.61364
0.15806	1.12229E5	3419.70706	115.68072	-39876.03503
0.15662	1.12114E5	3418.70706	114.77171	-39940.58379
0.15519	1.12000E5	3417.70706	113.87765	-40004.27459
0.15379	1.11887E5	3416.70706	112.99824	-40067.12178
0.15240	1.11775E5	3415.70706	112.13319	-40129.13941
0.15103	1.11663E5	3414.70706	111.28221	-40190.34129
0.14968	1.11553E5	3413.70706	110.44500	-40250.74090
0.14834	1.11443E5	3412.70706	109.62132	-40310.35149
0.14703	1.11335E5	3411.70706	108.81087	-40369.18603
0.14572	1.11227E5	3410.70706	108.01341	-40427.25724
0.14444	1.11119E5	3409.70706	107.22867	-40484.57758
0.14317	1.11013E5	3408.70706	106.45641	-40541.15926
0.14191	1.10907E5	3407.70706	105.69638	-40597.01427
0.14067	1.10802E5	3406.70706	104.94834	-40652.15436
0.13945	1.10698E5	3405.70706	104.21207	-40706.59102
0.13824	1.10595E5	3404.70706	103.48732	-40760.33556
0.13704	1.10492E5	3403.70706	102.77389	-40813.39905
0.13586	1.10390E5	3402.70706	102.07155	-40865.79235
0.13470	1.10288E5	3401.70706	101.38010	-40917.52610
0.13354	1.10188E5	3400.70706	100.69931	-40968.61075
0.13240	1.10088E5	3399.70706	100.02900	-41019.05655
0.13128	1.09988E5	3398.70706	99.36895	-41068.87355
0.13017	1.09890E5	3397.70706	98.71898	-41118.07161
0.12907	1.09791E5	3396.70706	98.07890	-41166.66039
0.12798	1.09694E5	3395.70706	97.44852	-41214.64940
0.12691	1.09597E5	3394.70706	96.82767	-41262.04795
0.12585	1.09501E5	3393.70706	96.21615	-41308.86517
0.12480	1.09405E5	3392.70706	95.61380	-41355.11002
0.12377	1.09310E5	3391.70706	95.02045	-41400.79132
0.12274	1.09216E5	3390.70706	94.43593	-41445.91770
0.12173	1.09122E5	3389.70706	93.86008	-41490.49763
0.12073	1.09029E5	3388.70706	93.29275	-41534.53943
0.11974	1.08936E5	3387.70706	92.73376	-41578.05128
0.11877	1.08844E5	3386.70706	92.18298	-41621.04120
0.11780	1.08752E5	3385.70706	91.64026	-41663.51705
0.11685	1.08661E5	3384.70706	91.10544	-41705.48656
0.11590	1.08570E5	3383.70706	90.57839	-41746.95733
0.11497	1.08480E5	3382.70706	90.05896	-41787.93680
0.11404	1.08391E5	3381.70706	89.54702	-41828.43229
0.11313	1.08302E5	3380.70706	89.04243	-41868.45100
0.11223	1.08213E5	3379.70706	88.54507	-41907.99996
0.11134	1.08125E5	3378.70706	88.05480	-41947.08613
0.11045	1.08038E5	3377.70706	87.57150	-41985.71629
0.10958	1.07951E5	3376.70706	87.09505	-42023.89715
0.10872	1.07864E5	3375.70706	86.62532	-42061.63527
0.10786	1.07778E5	3374.70706	86.16220	-42098.93710
0.10702	1.07692E5	3373.70706	85.70557	-42135.80898
0.10619	1.07607E5	3372.70706	85.25532	-42172.25714
0.10536	1.07522E5	3371.70706	84.81134	-42208.28771
0.10454	1.07438E5	3370.70706	84.37352	-42243.90668
0.10373	1.07354E5	3369.70706	83.94175	-42279.11997
0.10294	1.07270E5	3368.70706	83.51593	-42313.93339
0.10214	1.07187E5	3367.70706	83.09595	-42348.35264
0.10136	1.07104E5	3366.70706	82.68173	-42382.38333
0.10059	1.07022E5	3365.70706	82.27314	-42416.03097
0.09982	1.06940E5	3364.70706	81.87012	-42449.30097
0.09907	1.06859E5	3363.70706	81.47254	-42482.19867
0.09832	1.06778E5	3362.70706	81.08034	-42514.72930
0.09757	1.06697E5	3361.70706	80.69341	-42546.89800
0.09684	1.06617E5	3360.70706	80.31166	-42578.70982
0.09611	1.06537E5	3359.70706	79.93501	-42610.16976
0.09540	1.06457E5	3358.70706	79.56338	-42641.28268
0.09469	1.06378E5	3357.70706	79.19668	-42672.05340
0.09398	1.06299E5	3356.70706	78.83482	-42702.48665
0.09329	1.06221E5	3355.70706	78.47774	-42732.58708
0.09260	1.06143E5	3354.70706	78.12534	-42762.35925
0.09192	1.06065E5	3353.70706	77.77756	-42791.80766
0.09124	1.05987E5	3352.70706	77.43431	-42820.93674
0.09057	1.05910E5	3351.70706	77.09552	-42849.75083
0.08991	1.05834E5	3350.70706	76.76112	-42878.25421
0.08926	1.05757E5	3349.70706	76.43104	-42906.45109
0.08861	1.05681E5	3348.70706	76.10521	-42934.34560
0.08797	1.05605E5	3347.70706	75.78356	-42961.94181
0.08733	1.05530E5	3346.70706	75.46601	-42989.24374
0.08671	1.05455E5	3345.70706	75.15252	-43016.25531
0.08608	1.05380E5	3344.70706	74.84300	-43042.98041
0.08547	1.05305E5	3343.70706	74.53740	-43069.42285
0.08486	1.05231E5	3342.70706	74.23565	-43095.58639
0.08426	1.05157E5	3341.70706	73.93770	-43121.47471
0.08366	1.05083E5	3340.70706	73.64347	-43147.09144
0.08307	1.05010E5	3339.70706	73.35293	-43172.44018
0.08248	1.04937E5	3338.70706	73.06599	-43197.52443
0.08190	1.04864E5	3337.70706	72.78262	-43222.34765
0.08133	1.04792E5	3336.70706	72.50275	-43246.91326
0.08076	1.04719E5	3335.70706	72.22632	-43271.22462
0.08019	1.04647E5	3334.70706	71.95329	-43295.28501
0.07964	1.04576E5	3333.70706	71.68360	-43319.09770
0.07909	1.04504E5	3332.70706	71.41721	-43342.66589
0.07854	1.04433E5	3331.70706	71.15405	-43365.99272
0.07800	1.04362E5	3330.70706	70.89407	-43389.08129
0.07746	1.04292E5	3329.70706	70.63724	-43411.93466
0.07693	1.04221E5	3328.70706	70.38350	-43434.55584
0.07640	1.04151E5	3327.70706	70.13280	-43456.94778
0.07588	1.04081E5	3326.70706	69.88510	-43479.11339
0.07537	1.04012E5	3325.70706	69.64036	-43501.05556
0.07486	1.03942E5	3324.70706	69.39852	-43522.77709
0.07435	1.03873E5	3323.70706	69.15954	-43544.28078
0.07385	1.03804E5	3322.70706	68.92338	-43565.56937
0.07335	1.03735E5	3321.70706	68.69000	-43586.64555
0.07286	1.03667E5	3320.70706	68.45935	-43607.51198
0.07237	1.03599E5	3319.70706	68.23140	-43628.17128
0.07189	1.03531E5	3318.70706	68.00611	-43648.62603
0.07141	1.03463E5	3317.70706	67.78343	-43668.87877
0.07094	1.03395E5	3316.70706	67.56332	-43688.93200
0.07047	1.03328E5	3315.70706	67.34576	-43708.78817
0.07000	1.03261E5	3314.70706	67.13069	-43728.44974
0.06954	1.03194E5	3313.70706	66.91809	-43747.91907
0.06908	1.03127E5	3312.70706	66.70791	-43767.19853
0.06863	1.03061E5	3311.70706	66.50013	-43786.29044
0.06818	1.02995E5	3310.70706	66.29470	-43805.19709
0.06774	1.02928E5	3309.70706	66.09159	-43823.92073
0.06730	1.02863E5	3308.70706	65.89078	-43842.46358
0.06686	1.02797E5	3307.70706	65.69222	-43860.82783
0.06643	1.02731E5	3306.70706	65.49588	-43879.01564
0.06600	1.02666E5	3305.70706	65.30173	-43897.02913
0.06558	1.02601E5	3304.70706	65.10974	-43914.87039
0.06516	1.02536E5	3303.70706	64.91988	-43932.54148
0.06474	1.02471E5	3302.70706	64.73212	-43950.04445
0.06433	1.02407E5	3301.70706	64.54642	-43967.38130
0.06392	1.02342E5	3300.70706	64.36276	-43984.55400
0.06351	1.02278E5	3299.70706	64.18111	-44001.56449
0.06311	1.02214E5	3298.70706	64.00144	-44018.41471
0.06271	1.02150E5	3297.70706	63.82373	-44035.10653
0.06231	1.02087E5	3296.70706	63.64794	-44051.64183
0.06192	1.02023E5	3295.70706	63.47405	-44068.02245
0.06153	1.01960E5	3294.70706	63.30202	-44084.25019
0.06115	1.01897E5	3293.70706	63.13185	-44100.32685
0.06077	1.01834E5	3292.70706	62.96349	-44116.25419
0.06039	1.01771E5	3291.70706	62.79693	-44132.03394
0.06001	1.01708E5	3290.70706	62.63214	-44147.66781
0.05964	1.01646E5	3289.70706	62.46909	-44163.15750
0.05927	1.01584E5	3288.70706	62.30776	-44178.50468
0.05891	1.01522E5	3287.70706	62.14813	-44193.71097
0.05855	1.01460E5	3286.70706	61.99017	-44208.77801
0.05819	1.01398E5	3285.70706	61.83386	-44223.70739
0.05783	1.01336E5	3284.70706	61.67918	-44238.50068
0.05748	1.01274E5	3283.70706	61.52611	-44253.15944
0.05713	1.01213E5	3282.70706	61.37462	-44267.68520
0.05678	1.01152E5	3281.70706	61.22469	-44282.07947
0.05644	1.01091E5	3280.70706	61.07630	-44296.34374
0.05610	1.01030E5	3279.70706	60.92943	-44310.47948
0.05576	1.00969E5	3278.70706	60.78406	-44324.48815
0.05542	1.00908E5	3277.70706	60.64018	-44338.37116
0.05509	1.00848E5	3276.70706	60.49775	-44352.12993
0.05476	1.00788E5	3275.70706	60.35676	-44365.76585
0.05443	1.00727E5	3274.70706	60.21719	-44379.28030
0.05411	1.00667E5	3273.70706	60.07902	-44392.67463
0.05379	1.00607E5	3272.70706	59.94224	-44405.95018
0.05347	1.00548E5	3271.70706	59.80682	-44419.10826
0.05315	1.00488E5	3270.70706	59.67275	-44432.15018
0.05284	1.00428E5	3269.70706	59.54001	-44445.07721
0.05253	1.00369E5	3268.70706	59.40858	-44457.89063
0.05222	1.00310E5	3267.70706	59.27845	-44470.59168
0.05191	1.00251E5	3266.70706	59.14959	-44483.18160
0.05161	1.00191E5	3265.70706	59.02199	-44495.66160
0.05131	1.00133E5	3264.70706	58.89564	-44508.03289
0.05101	1.00074E5	3263.70706	58.77051	-44520.29664
0.05071	1.00015E5	3262.70706	58.64660	-44532.45404
0.05042	99956.66164	3261.70706	58.52388	-44544.50622
0.05013	99898.25930	3260.70706	58.40234	-44556.45434
0.04984	99839.97733	3259.70706	58.28197	-44568.29951
0.04955	99781.81457	3258.70706	58.16275	-44580.04284
0.04927	99723.76990	3257.70706	58.04467	-44591.68543
0.04899	99665.84220	3256.70706	57.92771	-44603.22837
0.04871	99608.03034	3255.70706	57.81185	-44614.67270
0.04843	99550.33325	3254.70706	57.69709	-44626.01950
0.04815	99492.74985	3253.70706	57.58341	-44637.26980
0.04788	99435.27906	3252.70706	57.47079	-44648.42463
0.04761	99377.91984	3251.70706	57.35922	-44659.48499
0.04734	99320.67114	3250.70706	57.24870	-44670.45189
0.04707	99263.53195	3249.70706	57.13919	-44681.32632
0.04681	99206.50124	3248.70706	57.03071	-44692.10924
0.04655	99149.57803	3247.70706	56.92322	-44702.80163
0.04629	99092.76131	3246.70706	56.81671	-44713.40444
0.04603	99036.05012	3245.70706	56.71119	-44723.91859
0.04577	98979.44350	3244.70706	56.60663	-44734.34503
0.04552	98922.94048	3243.70706	56.50301	-44744.68466
0.04526	98866.54014	3242.70706	56.40034	-44754.93838
0.04501	98810.24155	3241.70706	56.29859	-44765.10709
0.04476	98754.04379	3240.70706	56.19777	-44775.19167
0.04452	98697.94594	3239.70706	56.09784	-44785.19299
0.04427	98641.94713	3238.70706	55.99881	-44795.11191
0.04403	98586.04647	3237.70706	55.90066	-44804.94927
0.04379	98530.24308	3236.70706	55.80339	-44814.70592
0.04355	98474.53611	3235.70706	55.70697	-44824.38268
0.04331	98418.92470	3234.70706	55.61141	-44833.98037
0.04307	98363.40802	3233.70706	55.51669	-44843.49979
0.04284	98307.98522	3232.70706	55.42279	-44852.94175
0.04261	98252.65550	3231.70706	55.32972	-44862.30702
0.04238	98197.41804	3230.70706	55.23746	-44871.59640
0.04215	98142.27204	3229.70706	55.14600	-44880.81064
0.04192	98087.21671	3228.70706	55.05533	-44889.95051
0.04170	98032.25126	3227.70706	54.96544	-44899.01675
0.04147	97977.37494	3226.70706	54.87633	-44908.01012
0.04125	97922.58696	3225.70706	54.78797	-44916.93132
0.04103	97867.88659	3224.70706	54.70038	-44925.78110
0.04081	97813.27307	3223.70706	54.61352	-44934.56017
0.04060	97758.74566	3222.70706	54.52740	-44943.26923
0.04038	97704.30365	3221.70706	54.44201	-44951.90897
0.04017	97649.94631	3220.70706	54.35734	-44960.48009
0.03995	97595.67293	3219.70706	54.27338	-44968.98327
0.03974	97541.48280	3218.70706	54.19012	-44977.41917
0.03954	97487.37525	3217.70706	54.10756	-44985.78847
0.03933	97433.34957	3216.70706	54.02568	-44994.09183
0.03912	97379.40509	3215.70706	53.94448	-45002.32988
0.03892	97325.54114	3214.70706	53.86395	-45010.50327
0.03871	97271.75707	3213.70706	53.78408	-45018.61263
0.03851	97218.05221	3212.70706	53.70486	-45026.65859
0.03831	97164.42591	3211.70706	53.62629	-45034.64177
0.03811	97110.87755	3210.70706	53.54836	-45042.56279
0.03792	97057.40648	3209.70706	53.47107	-45050.42223
0.03772	97004.01209	3208.70706	53.39439	-45058.22071
0.03753	96950.69375	3207.70706	53.31834	-45065.95880
0.03733	96897.45086	3206.70706	53.24289	-45073.63711
0.03714	96844.28280	3205.70706	53.16805	-45081.25619
0.03695	96791.18899	3204.70706	53.09381	-45088.81662
0.03676	96738.16884	3203.70706	53.02015	-45096.31897
0.03657	96685.22176	3202.70706	52.94708	-45103.76379
0.03639	96632.34717	3201.70706	52.87459	-45111.15163
0.03620	96579.54450	3200.70706	52.80266	-45118.48303
0.03602	96526.81320	3199.70706	52.73130	-45125.75854
0.03584	96474.15270	3198.70706	52.66050	-45132.97868
0.03566	96421.56246	3197.70706	52.59025	-45140.14398
0.03548	96369.04192	3196.70706	52.52054	-45147.25496
0.03530	96316.59056	3195.70706	52.45137	-45154.31213
0.03512	96264.20782	3194.70706	52.38273	-45161.31601
0.03494	96211.89320	3193.70706	52.31462	-45168.26709
0.03477	96159.64617	3192.70706	52.24703	-45175.16586
0.03460	96107.46622	3191.70706	52.17996	-45182.01283
0.03442	96055.35282	3190.70706	52.11339	-45188.80847
0.03425	96003.30549	3189.70706	52.04733	-45195.55326
0.03408	95951.32372	3188.70706	51.98177	-45202.24769
0.03391	95899.40702	3187.70706	51.91670	-45208.89221
0.03375	95847.55491	3186.70706	51.85212	-45215.48729
0.03358	95795.76689	3185.70706	51.78802	-45222.03340
0.03341	95744.04250	3184.70706	51.72439	-45228.53098
0.03325	95692.38126	3183.70706	51.66124	-45234.98047
0.03309	95640.78270	3182.70706	51.59856	-45241.38234
0.03292	95589.24637	3181.70706	51.53633	-45247.73701
0.03276	95537.77181	3180.70706	51.47456	-45254.04491
