Mole fraction of liquid	Heat per mole [J]	Temperature [K]	Apparent heat capacity per mole [J/K]	Latent heat per mole [J]
1.00000	88605.86548	2290.69979	50.42265	0.00000
0.99998	88601.04382	2290.60417	50.42265	-0.36907
0.99694	88482.90396	2289.60417	118.13985	-66.06900
0.99390	88364.91375	2288.60417	117.99022	-131.65179
0.99086	88247.07216	2287.60417	117.84159	-197.11844
0.98782	88129.37820	2286.60417	117.69396	-262.46992
0.98479	88011.83086	2285.60417	117.54734	-327.70726
0.98176	87894.42912	2284.60417	117.40173	-392.83143
0.97873	87777.17199	2283.60417	117.25713	-457.84346
0.97571	87660.05844	2282.60417	117.11355	-522.74434
0.97268	87543.08746	2281.60417	116.97098	-587.53508
0.96967	87426.25803	2280.60417	116.82943	-652.21669
0.96665	87309.56913	2279.60417	116.68890	-716.79020
0.96364	87193.01974	2278.60417	116.54939	-781.25661
0.96062	87076.60883	2277.60417	116.41091	-845.61695
0.95762	86960.33536	2276.60417	116.27346	-909.87224
0.95461	86844.19832	2275.60417	116.13704	-974.02352
0.95161	86728.19666	2274.60417	116.00166	-1038.07181
0.94861	86612.32934	2273.60417	115.86732	-1102.01815
0.94561	86496.59533	2272.60417	115.73401	-1165.86358
0.94261	86380.99357	2271.60417	115.60176	-1229.60914
0.93962	86265.52302	2270.60417	115.47055	-1293.25588
0.93663	86150.18263	2269.60417	115.34039	-1356.80485
0.93364	86034.97133	2268.60417	115.21129	-1420.25711
0.93065	85919.88808	2267.60417	115.08326	-1483.61373
0.92766	85804.93179	2266.60417	114.95628	-1546.87575
0.92468	85690.10142	2265.60417	114.83038	-1610.04427
0.92170	85575.39587	2264.60417	114.70555	-1673.12034
0.91872	85460.81408	2263.60417	114.58179	-1736.10505
0.91574	85346.35496	2262.60417	114.45912	-1798.99949
0.91277	85232.01743	2261.60417	114.33753	-1861.80475
0.90979	85117.80038	2260.60417	114.21704	-1924.52192
0.90682	85003.70274	2259.60417	114.09765	-1987.15211
0.90385	84889.72338	2258.60417	113.97935	-2049.69642
0.90088	84775.86122	2257.60417	113.86217	-2112.15597
0.89792	84662.11512	2256.60417	113.74610	-2174.53188
0.89495	84548.48397	2255.60417	113.63114	-2236.82527
0.89199	84434.96666	2254.60417	113.51732	-2299.03728
0.88902	84321.56203	2253.60417	113.40462	-2361.16904
0.88606	84208.26897	2252.60417	113.29306	-2423.22172
0.88310	84095.08632	2251.60417	113.18265	-2485.19644
0.88015	83982.01293	2250.60417	113.07339	-2547.09439
0.87719	83869.04765	2249.60417	112.96528	-2608.91673
0.87423	83756.18931	2248.60417	112.85834	-2670.66463
0.87128	83643.43674	2247.60417	112.75257	-2732.33928
0.86832	83530.78876	2246.60417	112.64798	-2793.94187
0.86537	83418.24419	2245.60417	112.54458	-2855.47360
0.86242	83305.80182	2244.60417	112.44237	-2916.93568
0.85947	83193.46045	2243.60417	112.34136	-2978.32933
0.85652	83081.21888	2242.60417	112.24157	-3039.65578
0.85357	82969.07589	2241.60417	112.14300	-3100.91625
0.85062	82857.03023	2240.60417	112.04565	-3162.11201
0.84768	82745.08069	2239.60417	111.94955	-3223.24429
0.84473	82633.22600	2238.60417	111.85469	-3284.31438
0.84178	82521.46492	2237.60417	111.76108	-3345.32353
0.83884	82409.79618	2236.60417	111.66875	-3406.27305
0.83589	82298.21849	2235.60417	111.57769	-3467.16423
0.83295	82186.73058	2234.60417	111.48791	-3527.99837
0.83000	82075.33114	2233.60417	111.39944	-3588.77679
0.82706	81964.01887	2232.60417	111.31227	-3649.50083
0.82411	81852.79245	2231.60417	111.22642	-3710.17184
0.82117	81741.65054	2230.60417	111.14191	-3770.79115
0.81823	81630.59180	2229.60417	111.05874	-3831.36016
0.81528	81519.61488	2228.60417	110.97692	-3891.88022
0.81234	81408.71841	2227.60417	110.89647	-3952.35275
0.80940	81297.90100	2226.60417	110.81741	-4012.77915
0.80645	81187.16126	2225.60417	110.73974	-4073.16083
0.80351	81076.49779	2224.60417	110.66347	-4133.49925
0.80056	80965.90916	2223.60417	110.58863	-4193.79584
0.79762	80855.39394	2222.60417	110.51522	-4254.05208
0.79467	80744.95067	2221.60417	110.44327	-4314.26946
0.79172	80634.57788	2220.60417	110.37278	-4374.44946
0.78878	80524.27411	2219.60417	110.30378	-4434.59360
0.78583	80414.03784	2218.60417	110.23627	-4494.70342
0.78288	80303.86756	2217.60417	110.17028	-4554.78046
0.77993	80193.76174	2216.60417	110.10582	-4614.82630
0.77698	80083.71883	2215.60417	110.04291	-4674.84252
0.77403	79973.73727	2214.60417	109.98156	-4734.83072
0.77108	79863.81546	2213.60417	109.92180	-4794.79252
0.76813	79753.95181	2212.60417	109.86365	-4854.72958
0.76517	79644.14469	2211.60417	109.80712	-4914.64356
0.76221	79534.39245	2210.60417	109.75224	-4974.53613
0.75926	79424.69344	2209.60417	109.69901	-5034.40901
0.75630	79315.04596	2208.60417	109.64748	-5094.26393
0.75334	79205.44831	2207.60417	109.59765	-5154.10264
0.75037	79095.89875	2206.60417	109.54955	-5213.92691
0.74741	78986.39554	2205.60417	109.50321	-5273.73854
0.74444	78876.93690	2204.60417	109.45864	-5333.53937
0.74148	78767.52102	2203.60417	109.41588	-5393.33123
0.73851	78658.14608	2202.60417	109.37494	-5453.11601
0.73553	78548.81022	2201.60417	109.33585	-5512.89560
0.73256	78439.51158	2200.60417	109.29865	-5572.67194
0.72958	78330.24823	2199.60417	109.26335	-5632.44699
0.72660	78221.01825	2198.60417	109.22998	-5692.22273
0.72362	78111.81967	2197.60417	109.19858	-5752.00119
0.72064	78002.65049	2196.60417	109.16917	-5811.78441
0.71765	77893.50870	2195.60417	109.14179	-5871.57448
0.71466	77784.39224	2194.60417	109.11646	-5931.37351
0.71166	77675.29901	2193.60417	109.09323	-5991.18366
0.70867	77566.22689	2192.60417	109.07211	-6051.00709
0.70567	77457.17374	2191.60417	109.05316	-6110.84605
0.70266	77348.13734	2190.60417	109.03640	-6170.70277
0.69966	77239.11547	2189.60417	109.02187	-6230.57957
0.69665	77130.10587	2188.60417	109.00960	-6290.47876
0.69363	77021.10622	2187.60417	108.99965	-6350.40274
0.69061	76912.11418	2186.60417	108.99204	-6410.35391
0.68759	76803.12735	2185.60417	108.98683	-6470.33474
0.68456	76694.14331	2184.60417	108.98405	-6530.34773
0.68153	76585.15956	2183.60417	108.98374	-6590.39543
0.67850	76476.17521	2182.60417	108.98435	-6650.47945
0.67546	76367.19197	2181.60417	108.98324	-6710.60446
0.67242	76258.20960	2180.60417	108.98237	-6770.77220
0.66937	76149.22532	2179.60417	108.98429	-6830.98547
0.66631	76040.23628	2178.60417	108.98904	-6891.24713
0.66325	75931.23959	2177.60417	108.99668	-6951.56008
0.66019	75822.23232	2176.60417	109.00728	-7011.92729
0.65712	75713.21144	2175.60417	109.02088	-7072.35178
0.65404	75604.17388	2174.60417	109.03755	-7132.83665
0.65096	75495.11653	2173.60417	109.05735	-7193.38505
0.64787	75386.03617	2172.60417	109.08035	-7254.00019
0.64478	75276.92956	2171.60417	109.10662	-7314.68537
0.64168	75167.79334	2170.60417	109.13621	-7375.44394
0.63857	75058.62413	2169.60417	109.16922	-7436.27933
0.63546	74949.41843	2168.60417	109.20570	-7497.19505
0.63234	74840.17269	2167.60417	109.24574	-7558.19468
0.62921	74730.88328	2166.60417	109.28941	-7619.28190
0.62608	74621.54647	2165.60417	109.33681	-7680.46046
0.62294	74512.15846	2164.60417	109.38801	-7741.73420
0.61979	74402.71535	2163.60417	109.44311	-7803.10704
0.61663	74293.21316	2162.60417	109.50219	-7864.58301
0.61346	74183.64780	2161.60417	109.56536	-7926.16625
0.61029	74074.01508	2160.60417	109.63272	-7987.86096
0.60711	73964.31072	2159.60417	109.70436	-8049.67148
0.60392	73854.53033	2158.60417	109.78039	-8111.60224
0.60071	73744.66939	2157.60417	109.86093	-8173.65781
0.59750	73634.72330	2156.60417	109.94610	-8235.84284
0.59428	73524.68729	2155.60417	110.03600	-8298.16214
0.59105	73414.55651	2154.60417	110.13078	-8360.62062
0.58781	73304.32596	2153.60417	110.23055	-8423.22333
0.58456	73193.99050	2152.60417	110.33546	-8485.97547
0.58130	73083.54485	2151.60417	110.44565	-8548.88236
0.57803	72972.98360	2150.60417	110.56126	-8611.94950
0.57475	72862.30115	2149.60417	110.68244	-8675.18252
0.57145	72751.49179	2148.60417	110.80937	-8738.58722
0.56814	72640.54959	2147.60417	110.94219	-8802.16958
0.56482	72529.46849	2146.60417	111.08110	-8865.93574
0.56149	72418.24223	2145.60417	111.22627	-8929.89203
0.55815	72306.86434	2144.60417	111.37789	-8994.04498
0.55479	72195.32819	2143.60417	111.53615	-9058.40132
0.55141	72083.62691	2142.60417	111.70128	-9122.96797
0.54803	71971.75344	2141.60417	111.87347	-9187.75210
0.54462	71859.70047	2140.60417	112.05297	-9252.76109
0.54121	71747.46047	2139.60417	112.24000	-9318.00257
0.53778	71635.02565	2138.60417	112.43482	-9383.48440
0.53433	71522.38796	2137.60417	112.63769	-9449.21474
0.53086	71409.53909	2136.60417	112.84887	-9515.20200
0.52738	71296.47042	2135.60417	113.06867	-9581.45488
0.52388	71183.17305	2134.60417	113.29737	-9647.98241
0.52036	71069.63776	2133.60417	113.53529	-9714.79390
0.51683	70955.85499	2132.60417	113.78277	-9781.89902
0.51327	70841.81484	2131.60417	114.04015	-9849.30779
0.50970	70727.50703	2130.60417	114.30781	-9917.03061
0.50611	70612.92091	2129.60417	114.58612	-9985.07825
0.50249	70498.04541	2128.60417	114.87550	-10053.46190
0.49885	70382.86904	2127.60417	115.17637	-10122.19319
0.49519	70267.37986	2126.60417	115.48919	-10191.28420
0.49151	70151.56543	2125.60417	115.81443	-10260.74749
0.48781	70035.41283	2124.60417	116.15260	-10330.59614
0.48408	69918.90859	2123.60417	116.50424	-10400.84375
0.48032	69802.03869	2122.60417	116.86990	-10471.50452
0.47654	69684.78851	2121.60417	117.25018	-10542.59322
0.47273	69567.14278	2120.60417	117.64573	-10614.12527
0.46890	69449.08557	2119.60417	118.05720	-10686.11678
0.46503	69330.60025	2118.60417	118.48532	-10758.58457
0.46114	69211.66942	2117.60417	118.93083	-10831.54620
0.45721	69092.27487	2116.60417	119.39455	-10905.02009
0.45326	68972.39754	2115.60417	119.87733	-10979.02547
0.44927	68852.01746	2114.60417	120.38008	-11053.58252
0.44524	68731.11369	2113.60417	120.90377	-11128.71240
0.44118	68609.66425	2112.60417	121.44944	-11204.43729
0.43709	68487.64606	2111.60417	122.01820	-11280.78052
0.43295	68365.03483	2110.60417	122.61123	-11357.76658
0.42878	68241.80503	2109.60417	123.22980	-11435.42126
0.42457	68117.92975	2108.60417	123.87527	-11513.77170
0.42031	67993.38065	2107.60417	124.54910	-11592.84652
0.41601	67868.12780	2106.60417	125.25285	-11672.67590
0.41166	67742.13959	2105.60417	125.98821	-11753.29174
0.40726	67615.38261	2104.60417	126.75698	-11834.72774
0.40281	67487.82149	2103.60417	127.56112	-11917.01955
0.39832	67359.41875	2102.60417	128.40274	-12000.20498
0.39376	67230.13465	2101.60417	129.28410	-12084.32408
0.38915	67099.92697	2100.60417	130.20768	-12169.41941
0.38448	66968.75082	2099.60417	131.17614	-12255.53620
0.37975	66836.55845	2098.60417	132.19238	-12342.72258
0.37495	66703.29893	2097.60417	133.25952	-12431.02984
0.37009	66568.91793	2096.60417	134.38100	-12520.51270
0.36515	66433.35741	2095.60417	135.56052	-12611.22962
0.36014	66296.55526	2094.60417	136.80215	-12703.24312
0.35505	66158.44496	2093.60417	138.11030	-12796.62019
0.34987	66018.95513	2092.60417	139.48983	-12891.43264
0.34461	65878.00911	2091.60417	140.94602	-12987.75763
0.33926	65735.52444	2090.60417	142.48467	-13085.67812
0.33381	65591.41230	2089.60417	144.11214	-13185.28345
0.32826	65445.57689	2088.60417	145.83541	-13286.66998
0.32259	65297.91476	2087.60417	147.66214	-13389.94175
0.31682	65148.31402	2086.60417	149.60074	-13495.21121
0.31092	64996.65358	2085.60417	151.66044	-13602.60012
0.30489	64842.80219	2084.60417	153.85138	-13712.24037
0.29873	64686.61753	2083.60417	156.18466	-13824.27500
0.29241	64527.94513	2082.60417	158.67240	-13938.85919
0.28595	64366.61734	2081.60417	161.32779	-14056.16137
0.27931	64202.45222	2080.60417	164.16512	-14176.36428
0.27250	64035.25253	2079.60417	167.19969	-14299.66603
0.26550	63864.80484	2078.60417	170.44769	-14426.28098
0.25829	63690.87888	2077.60417	173.92596	-14556.44034
0.25087	63513.22747	2076.60417	177.65141	-14690.39233
0.24322	63331.58725	2075.60417	181.64022	-14828.40144
0.23531	63145.68075	2074.60417	185.90650	-14970.74634
0.22715	62955.22059	2073.60417	190.46016	-15117.71572
0.21869	62759.91687	2072.60417	195.30371	-15269.60093
0.20994	62559.48937	2071.60417	200.42751	-15426.68385
0.20088	62353.68654	2070.60417	205.80283	-15589.21786
0.19149	62142.31436	2069.60417	211.37218	-15757.39915
0.18177	61925.27814	2068.60417	217.03621	-15931.32495
0.17172	61702.64075	2067.60417	222.63739	-16110.93549
0.16136	61474.69901	2066.60417	227.94175	-16295.93767
0.15071	61242.07608	2065.60417	232.62293	-16485.71288
0.13985	61005.81929	2064.60417	236.25679	-16679.21932
0.12884	60767.48016	2063.60417	238.33913	-16874.91196
0.11781	60529.14055	2062.60417	238.33961	-17070.71625
0.10691	60293.34442	2061.60417	235.79613	-17264.09590
0.09628	60062.91186	2060.60417	230.43256	-17452.23810
0.08609	59840.65354	2059.60417	222.25831	-17632.33803
0.07649	59629.05231	2058.60417	211.60124	-17801.91642
0.06757	59430.00127	2057.60417	199.05103	-17959.08074
0.05941	59244.66591	2056.60417	185.33536	-18102.66305
0.05204	59073.48498	2055.60417	171.18093	-18232.21937
0.04544	58916.27729	2054.60417	157.20769	-18347.92360
0.03958	58772.40069	2053.60417	143.87660	-18450.40929
0.03442	58640.91595	2052.60417	131.48474	-18540.60644
0.02990	58520.72676	2051.60417	120.18919	-18619.60214
0.02594	58410.68498	2050.60417	110.04179	-18688.53563
0.02249	58309.66196	2049.60417	101.02301	-18748.52722
0.01949	58216.59219	2048.60417	93.06977	-18800.63487
0.01688	58130.49647	2047.60417	86.09572	-18845.83094
0.01462	58050.49147	2046.60417	80.00500	-18884.99269
0.01266	57975.79046	2045.60417	74.70101	-18918.90148
0.01095	57905.69907	2044.60417	70.09139	-18948.24699
0.00948	57839.60827	2043.60417	66.09080	-18973.63410
