Mole fraction of liquid	Heat per mole [J]	Temperature [K]	Apparent heat capacity per mole [J/K]	Latent heat per mole [J]
1.00000	88118.29016	2283.25397	50.19670	0.00000
0.99998	88113.49010	2283.15835	50.19670	-0.35343
0.99703	87998.22466	2282.15835	115.26545	-63.27840
0.99408	87883.10563	2281.15835	115.11903	-126.08916
0.99113	87768.13208	2280.15835	114.97355	-188.78662
0.98819	87653.30308	2279.15835	114.82900	-251.37174
0.98524	87538.61768	2278.15835	114.68540	-313.84542
0.98231	87424.07495	2277.15835	114.54273	-376.20861
0.97937	87309.67394	2276.15835	114.40101	-438.46225
0.97644	87195.41371	2275.15835	114.26023	-500.60726
0.97351	87081.29332	2274.15835	114.12040	-562.64459
0.97058	86967.31181	2273.15835	113.98151	-624.57519
0.96765	86853.46823	2272.15835	113.84357	-686.39999
0.96473	86739.76164	2271.15835	113.70659	-748.11995
0.96181	86626.19108	2270.15835	113.57056	-809.73601
0.95889	86512.75559	2269.15835	113.43549	-871.24913
0.95598	86399.45422	2268.15835	113.30137	-932.66026
0.95306	86286.28600	2267.15835	113.16822	-993.97037
0.95015	86173.24996	2266.15835	113.03604	-1055.18041
0.94725	86060.34515	2265.15835	112.90481	-1116.29135
0.94434	85947.57058	2264.15835	112.77456	-1177.30416
0.94144	85834.92530	2263.15835	112.64529	-1238.21981
0.93854	85722.40831	2262.15835	112.51698	-1299.03928
0.93564	85610.01865	2261.15835	112.38966	-1359.76355
0.93274	85497.75533	2260.15835	112.26332	-1420.39361
0.92985	85385.61737	2259.15835	112.13797	-1480.93043
0.92696	85273.60377	2258.15835	112.01360	-1541.37501
0.92407	85161.71354	2257.15835	111.89023	-1601.72834
0.92118	85049.94569	2256.15835	111.76785	-1661.99143
0.91829	84938.29921	2255.15835	111.64648	-1722.16528
0.91541	84826.77311	2254.15835	111.52611	-1782.25091
0.91252	84715.36636	2253.15835	111.40674	-1842.24931
0.90964	84604.07797	2252.15835	111.28840	-1902.16151
0.90677	84492.90690	2251.15835	111.17106	-1961.98854
0.90389	84381.85215	2250.15835	111.05475	-2021.73143
0.90101	84270.91268	2249.15835	110.93947	-2081.39120
0.89814	84160.08745	2248.15835	110.82522	-2140.96889
0.89527	84049.37545	2247.15835	110.71201	-2200.46556
0.89240	83938.77561	2246.15835	110.59983	-2259.88225
0.88953	83828.28691	2245.15835	110.48871	-2319.22002
0.88666	83717.90827	2244.15835	110.37863	-2378.47992
0.88379	83607.63865	2243.15835	110.26962	-2437.66304
0.88093	83497.47699	2242.15835	110.16167	-2496.77044
0.87806	83387.42220	2241.15835	110.05478	-2555.80320
0.87520	83277.47323	2240.15835	109.94898	-2614.76242
0.87234	83167.62897	2239.15835	109.84425	-2673.64918
0.86948	83057.88835	2238.15835	109.74062	-2732.46460
0.86662	82948.25028	2237.15835	109.63808	-2791.20978
0.86376	82838.71364	2236.15835	109.53664	-2849.88583
0.86091	82729.27733	2235.15835	109.43631	-2908.49389
0.85805	82619.94023	2234.15835	109.33710	-2967.03507
0.85520	82510.70122	2233.15835	109.23901	-3025.51054
0.85234	82401.55917	2232.15835	109.14205	-3083.92143
0.84949	82292.51294	2231.15835	109.04623	-3142.26890
0.84664	82183.56138	2230.15835	108.95156	-3200.55411
0.84378	82074.70334	2229.15835	108.85804	-3258.77825
0.84093	81965.93764	2228.15835	108.76569	-3316.94250
0.83808	81857.26313	2227.15835	108.67452	-3375.04804
0.83523	81748.67861	2226.15835	108.58452	-3433.09609
0.83238	81640.18289	2225.15835	108.49571	-3491.08786
0.82953	81531.77478	2224.15835	108.40811	-3549.02456
0.82668	81423.45307	2223.15835	108.32172	-3606.90745
0.82383	81315.21652	2222.15835	108.23654	-3664.73775
0.82098	81207.06392	2221.15835	108.15260	-3722.51673
0.81813	81098.99402	2220.15835	108.06990	-3780.24565
0.81528	80991.00557	2219.15835	107.98845	-3837.92580
0.81244	80883.09730	2218.15835	107.90827	-3895.55846
0.80959	80775.26793	2217.15835	107.82936	-3953.14493
0.80674	80667.51620	2216.15835	107.75174	-4010.68654
0.80389	80559.84078	2215.15835	107.67542	-4068.18461
0.80104	80452.24038	2214.15835	107.60040	-4125.64048
0.79819	80344.71366	2213.15835	107.52672	-4183.05551
0.79534	80237.25929	2212.15835	107.45437	-4240.43107
0.79249	80129.87592	2211.15835	107.38337	-4297.76854
0.78964	80022.56218	2210.15835	107.31374	-4355.06932
0.78679	79915.31670	2209.15835	107.24548	-4412.33482
0.78393	79808.13808	2208.15835	107.17862	-4469.56648
0.78108	79701.02491	2207.15835	107.11317	-4526.76573
0.77823	79593.97576	2206.15835	107.04915	-4583.93405
0.77537	79486.98920	2205.15835	106.98656	-4641.07290
0.77251	79380.06377	2204.15835	106.92543	-4698.18379
0.76966	79273.19799	2203.15835	106.86578	-4755.26823
0.76680	79166.39038	2202.15835	106.80761	-4812.32774
0.76394	79059.63942	2201.15835	106.75096	-4869.36389
0.76108	78952.94359	2200.15835	106.69583	-4926.37823
0.75822	78846.30135	2199.15835	106.64225	-4983.37236
0.75535	78739.71112	2198.15835	106.59023	-5040.34789
0.75249	78633.17132	2197.15835	106.53980	-5097.30644
0.74962	78526.68035	2196.15835	106.49097	-5154.24968
0.74675	78420.23657	2195.15835	106.44377	-5211.17926
0.74388	78313.83835	2194.15835	106.39822	-5268.09690
0.74101	78207.48401	2193.15835	106.35434	-5325.00431
0.73814	78101.17186	2192.15835	106.31215	-5381.90322
0.73526	77994.90017	2191.15835	106.27168	-5438.79542
0.73238	77888.66722	2190.15835	106.23295	-5495.68270
0.72950	77782.47123	2189.15835	106.19599	-5552.56687
0.72662	77676.31041	2188.15835	106.16082	-5609.44978
0.72373	77570.18294	2187.15835	106.12747	-5666.33330
0.72085	77464.08699	2186.15835	106.09596	-5723.21934
0.71796	77358.02066	2185.15835	106.06632	-5780.10983
0.71506	77251.98207	2184.15835	106.03859	-5837.00672
0.71217	77145.96927	2183.15835	106.01279	-5893.91202
0.70927	77039.98383	2182.15835	105.98544	-5950.82691
0.70636	76934.02698	2181.15835	105.95685	-6007.75517
0.70346	76828.09749	2180.15835	105.92949	-6064.69808
0.70055	76722.19320	2179.15835	105.90429	-6121.65781
0.69764	76616.31192	2178.15835	105.88128	-6178.63657
0.69472	76510.45142	2177.15835	105.86050	-6235.63659
0.69180	76404.60944	2176.15835	105.84198	-6292.66015
0.68888	76298.78366	2175.15835	105.82577	-6349.70956
0.68595	76192.97176	2174.15835	105.81190	-6406.78719
0.68302	76087.17134	2173.15835	105.80042	-6463.89543
0.68008	75981.37998	2172.15835	105.79136	-6521.03673
0.67714	75875.59520	2171.15835	105.78478	-6578.21358
0.67420	75769.81450	2170.15835	105.78070	-6635.42850
0.67125	75664.03530	2169.15835	105.77920	-6692.68408
0.66830	75558.25501	2168.15835	105.78030	-6749.98296
0.66534	75452.47095	2167.15835	105.78406	-6807.32781
0.66237	75346.68041	2166.15835	105.79053	-6864.72137
0.65941	75240.88065	2165.15835	105.79977	-6922.16642
0.65643	75135.06882	2164.15835	105.81183	-6979.66582
0.65345	75029.24206	2163.15835	105.82676	-7037.22246
0.65047	74923.39744	2162.15835	105.84462	-7094.83931
0.64748	74817.53195	2161.15835	105.86548	-7152.51939
0.64448	74711.64255	2160.15835	105.88940	-7210.26579
0.64148	74605.72611	2159.15835	105.91644	-7268.08167
0.63847	74499.77943	2158.15835	105.94667	-7325.97024
0.63545	74393.79927	2157.15835	105.98016	-7383.93481
0.63243	74287.78228	2156.15835	106.01698	-7441.97873
0.62940	74181.72507	2155.15835	106.05721	-7500.10546
0.62636	74075.62415	2154.15835	106.10092	-7558.31852
0.62332	73969.47596	2153.15835	106.14819	-7616.62150
0.62026	73863.27686	2152.15835	106.19911	-7675.01810
0.61720	73757.02310	2151.15835	106.25376	-7733.51210
0.61414	73650.71087	2150.15835	106.31222	-7792.10735
0.61106	73544.33627	2149.15835	106.37461	-7850.80783
0.60798	73437.89527	2148.15835	106.44100	-7909.61759
0.60488	73331.38376	2147.15835	106.51150	-7968.54079
0.60178	73224.79755	2146.15835	106.58622	-8027.58170
0.59867	73118.13229	2145.15835	106.66525	-8086.74469
0.59555	73011.38357	2144.15835	106.74872	-8146.03425
0.59242	72904.54683	2143.15835	106.83674	-8205.45500
0.58928	72797.61741	2142.15835	106.92943	-8265.01166
0.58614	72690.59050	2141.15835	107.02691	-8324.70908
0.58298	72583.46118	2140.15835	107.12932	-8384.55228
0.57980	72476.22438	2139.15835	107.23679	-8444.54636
0.57662	72368.87491	2138.15835	107.34947	-8504.69661
0.57343	72261.40740	2137.15835	107.46751	-8565.00846
0.57023	72153.81635	2136.15835	107.59105	-8625.48748
0.56701	72046.09609	2135.15835	107.72026	-8686.13943
0.56378	71938.24077	2134.15835	107.85531	-8746.97021
0.56054	71830.24440	2133.15835	107.99637	-8807.98592
0.55728	71722.10077	2132.15835	108.14363	-8869.19285
0.55402	71613.80349	2131.15835	108.29728	-8930.59746
0.55074	71505.34598	2130.15835	108.45751	-8992.20644
0.54744	71396.72144	2129.15835	108.62454	-9054.02666
0.54413	71287.92286	2128.15835	108.79858	-9116.06525
0.54081	71178.94299	2127.15835	108.97987	-9178.32954
0.53746	71069.77434	2126.15835	109.16865	-9240.82712
0.53411	70960.40919	2125.15835	109.36516	-9303.56583
0.53074	70850.83952	2124.15835	109.56966	-9366.55378
0.52735	70741.05708	2123.15835	109.78245	-9429.79935
0.52394	70631.05328	2122.15835	110.00380	-9493.31122
0.52052	70520.81925	2121.15835	110.23402	-9557.09838
0.51707	70410.34582	2120.15835	110.47343	-9621.17015
0.51361	70299.62345	2119.15835	110.72237	-9685.53618
0.51013	70188.64225	2118.15835	110.98120	-9750.20647
0.50663	70077.39197	2117.15835	111.25028	-9815.19142
0.50311	69965.86197	2116.15835	111.53000	-9880.50182
0.49957	69854.04118	2115.15835	111.82079	-9946.14886
0.49600	69741.91811	2114.15835	112.12307	-10012.14419
0.49241	69629.48079	2113.15835	112.43732	-10078.49993
0.48880	69516.71677	2112.15835	112.76401	-10145.22867
0.48517	69403.61310	2111.15835	113.10367	-10212.34354
0.48151	69290.15627	2110.15835	113.45683	-10279.85821
0.47782	69176.33219	2109.15835	113.82408	-10347.78694
0.47411	69062.12618	2108.15835	114.20602	-10416.14460
0.47037	68947.52288	2107.15835	114.60330	-10484.94671
0.46661	68832.50626	2106.15835	115.01661	-10554.20949
0.46281	68717.05957	2105.15835	115.44669	-10623.94990
0.45898	68601.16527	2104.15835	115.89430	-10694.18568
0.45512	68484.80499	2103.15835	116.36028	-10764.93540
0.45123	68367.95949	2102.15835	116.84550	-10836.21852
0.44730	68250.60857	2101.15835	117.35091	-10908.05545
0.44334	68132.73107	2100.15835	117.87750	-10980.46761
0.43935	68014.30472	2099.15835	118.42635	-11053.47749
0.43531	67895.30611	2098.15835	118.99861	-11127.10873
0.43124	67775.71063	2097.15835	119.59548	-11201.38623
0.42713	67655.49233	2096.15835	120.21830	-11276.33617
0.42297	67534.62387	2095.15835	120.86846	-11351.98619
0.41877	67413.07638	2094.15835	121.54749	-11428.36543
0.41452	67290.81937	2093.15835	122.25700	-11505.50468
0.41023	67167.82061	2092.15835	122.99876	-11583.43647
0.40589	67044.04597	2091.15835	123.77465	-11662.19525
0.40149	66919.45927	2090.15835	124.58670	-11741.81753
0.39705	66794.02214	2089.15835	125.43713	-11822.34200
0.39254	66667.69383	2088.15835	126.32831	-11903.80979
0.38798	66540.43101	2087.15835	127.26283	-11986.26460
0.38335	66412.18752	2086.15835	128.24349	-12069.75295
0.37867	66282.91417	2085.15835	129.27334	-12154.32443
0.37391	66152.55848	2084.15835	130.35569	-12240.03196
0.36908	66021.06432	2083.15835	131.49416	-12326.93207
0.36418	65888.37165	2082.15835	132.69268	-12415.08527
0.35920	65754.41610	2081.15835	133.95555	-12504.55638
0.35414	65619.12862	2080.15835	135.28748	-12595.41495
0.34899	65482.43498	2079.15835	136.69364	-12687.73571
0.34376	65344.25531	2078.15835	138.17967	-12781.59907
0.33842	65204.50351	2077.15835	139.75179	-12877.09167
0.33299	65063.08668	2076.15835	141.41683	-12974.30701
0.32744	64919.90439	2075.15835	143.18229	-13073.34612
0.32179	64774.84794	2074.15835	145.05644	-13174.31833
0.31601	64627.79956	2073.15835	147.04838	-13277.34209
0.31010	64478.63144	2072.15835	149.16812	-13382.54589
0.30406	64327.20477	2071.15835	151.42667	-13490.06930
0.29788	64173.36863	2070.15835	153.83614	-13600.06400
0.29154	64016.95888	2069.15835	156.40975	-13712.69495
0.28503	63857.79692	2068.15835	159.16196	-13828.14160
0.27835	63695.68852	2067.15835	162.10840	-13946.59909
0.27148	63530.42267	2066.15835	165.26585	-14068.27940
0.26440	63361.77061	2065.15835	168.65206	-14193.41231
0.25711	63189.48522	2064.15835	172.28539	-14322.24604
0.24959	63013.30105	2063.15835	176.18417	-14455.04720
0.24182	62832.93539	2062.15835	180.36566	-14592.09976
0.23378	62648.09106	2061.15835	184.84433	-14733.70230
0.22546	62458.46181	2060.15835	189.62925	-14880.16257
0.21684	62263.74181	2059.15835	194.72000	-15031.78806
0.20789	62063.64111	2058.15835	200.10070	-15188.87064
0.19861	61857.90970	2057.15835	205.73140	-15351.66248
0.18898	61646.37368	2056.15835	211.53603	-15520.34005
0.17900	61428.98700	2055.15835	217.38668	-15694.95242
0.16868	61205.90220	2054.15835	223.08480	-15875.35071
0.15804	60977.56012	2053.15835	228.34208	-16061.09854
0.14712	60744.79228	2052.15835	232.76784	-16251.36979
0.13601	60508.91787	2051.15835	235.87440	-16444.85172
0.12480	60271.80255	2050.15835	237.11532	-16639.68605
0.11364	60035.83603	2049.15835	235.96652	-16833.49105
0.10268	59803.79280	2048.15835	232.04323	-17023.50012
0.09208	59578.57449	2047.15835	225.21831	-17206.81847
0.08202	59362.88474	2046.15835	215.68975	-17380.74719
0.07261	59158.92594	2045.15835	203.95880	-17543.08573
0.06394	58968.20221	2044.15835	190.72373	-17692.32856
0.05607	58791.46635	2043.15835	176.73586	-17827.71846
0.04899	58628.79230	2042.15835	162.67405	-17949.17460
0.04269	58479.72210	2041.15835	149.07020	-18057.14643
0.03712	58343.43392	2040.15835	136.28818	-18152.44638
0.03223	58218.89436	2039.15835	124.53955	-18236.09820
0.02794	58104.97811	2038.15835	113.91626	-18309.21785
0.02419	58000.55205	2037.15835	104.42606	-18372.92954
0.02093	57904.52907	2036.15835	96.02297	-18428.31226
0.01810	57815.89867	2035.15835	88.63041	-18476.36913
0.01564	57733.74139	2034.15835	82.15728	-18518.01301
0.01351	57657.23298	2033.15835	76.50841	-18554.06232
0.01166	57585.64210	2032.15835	71.59088	-18585.24325
0.01006	57518.32457	2031.15835	67.31753	-18612.19548
0.00867	57454.71588	2030.15835	63.60869	-18635.47959
