Mole fraction of liquid	Heat per mole [J]	Temperature [K]	Apparent heat capacity per mole [J/K]	Latent heat per mole [J]
1.00000	85601.68001	2244.02186	49.13185	0.00000
0.99999	85596.98177	2243.92623	49.13185	-0.28184
0.99747	85495.06561	2242.92623	101.91616	-50.41905
0.99495	85393.28003	2241.92623	101.78558	-100.45641
0.99243	85291.62437	2240.92623	101.65566	-150.39455
0.98992	85190.09798	2239.92623	101.52639	-200.23414
0.98741	85088.70020	2238.92623	101.39778	-249.97583
0.98490	84987.43037	2237.92623	101.26983	-299.62027
0.98240	84886.28784	2236.92623	101.14253	-349.16812
0.97990	84785.27195	2235.92623	101.01589	-398.62003
0.97740	84684.38204	2234.92623	100.88991	-447.97666
0.97490	84583.61744	2233.92623	100.76459	-497.23867
0.97241	84482.97752	2232.92623	100.63993	-546.40671
0.96992	84382.46159	2231.92623	100.51592	-595.48143
0.96743	84282.06901	2230.92623	100.39258	-644.46351
0.96494	84181.79911	2229.92623	100.26990	-693.35360
0.96246	84081.65123	2228.92623	100.14788	-742.15236
0.95998	83981.62472	2227.92623	100.02652	-790.86045
0.95750	83881.71890	2226.92623	99.90582	-839.47854
0.95502	83781.93312	2225.92623	99.78578	-888.00729
0.95255	83682.26670	2224.92623	99.66641	-936.44737
0.95008	83582.71899	2223.92623	99.54771	-984.79944
0.94761	83483.28933	2222.92623	99.42967	-1033.06417
0.94514	83383.97703	2221.92623	99.31229	-1081.24223
0.94268	83284.78144	2220.92623	99.19559	-1129.33430
0.94021	83185.70189	2219.92623	99.07955	-1177.34103
0.93775	83086.73771	2218.92623	98.96419	-1225.26312
0.93529	82987.88822	2217.92623	98.84949	-1273.10122
0.93284	82889.15275	2216.92623	98.73547	-1320.85603
0.93038	82790.53063	2215.92623	98.62212	-1368.52822
0.92793	82692.02119	2214.92623	98.50944	-1416.11846
0.92548	82593.62375	2213.92623	98.39744	-1463.62745
0.92303	82495.33762	2212.92623	98.28612	-1511.05586
0.92059	82397.16214	2211.92623	98.17548	-1558.40438
0.91814	82299.09662	2210.92623	98.06552	-1605.67370
0.91570	82201.14037	2209.92623	97.95625	-1652.86451
0.91326	82103.29271	2208.92623	97.84765	-1699.97750
0.91082	82005.55297	2207.92623	97.73975	-1747.01337
0.90838	81907.92044	2206.92623	97.63253	-1793.97282
0.90595	81810.39443	2205.92623	97.52600	-1840.85654
0.90352	81712.97427	2204.92623	97.42017	-1887.66523
0.90108	81615.65924	2203.92623	97.31503	-1934.39960
0.89865	81518.44866	2202.92623	97.21058	-1981.06036
0.89623	81421.34182	2201.92623	97.10684	-2027.64821
0.89380	81324.33803	2200.92623	97.00379	-2074.16387
0.89137	81227.43658	2199.92623	96.90145	-2120.60805
0.88895	81130.63677	2198.92623	96.79981	-2166.98147
0.88653	81033.93788	2197.92623	96.69889	-2213.28486
0.88411	80937.33922	2196.92623	96.59867	-2259.51893
0.88169	80840.84005	2195.92623	96.49917	-2305.68441
0.87927	80744.43967	2194.92623	96.40038	-2351.78204
0.87685	80648.13735	2193.92623	96.30231	-2397.81255
0.87444	80551.93238	2192.92623	96.20497	-2443.77667
0.87202	80455.82403	2191.92623	96.10835	-2489.67515
0.86961	80359.81157	2190.92623	96.01246	-2535.50872
0.86720	80263.89426	2189.92623	95.91731	-2581.27815
0.86479	80168.07138	2188.92623	95.82288	-2626.98418
0.86238	80072.34217	2187.92623	95.72920	-2672.62757
0.85997	79976.70591	2186.92623	95.63626	-2718.20907
0.85756	79881.16185	2185.92623	95.54407	-2763.72946
0.85516	79785.70922	2184.92623	95.45262	-2809.18949
0.85275	79690.34729	2183.92623	95.36193	-2854.58996
0.85035	79595.07552	2182.92623	95.27177	-2899.93137
0.84794	79499.89455	2181.92623	95.18097	-2945.21502
0.84554	79404.80519	2180.92623	95.08936	-2990.44146
0.84314	79309.80665	2179.92623	94.99854	-3035.61149
0.84074	79214.89812	2178.92623	94.90853	-3080.72592
0.83834	79120.07879	2177.92623	94.81933	-3125.78556
0.83594	79025.34785	2176.92623	94.73094	-3170.79124
0.83354	78930.70447	2175.92623	94.64337	-3215.74377
0.83114	78836.14784	2174.92623	94.55663	-3260.64400
0.82874	78741.67713	2173.92623	94.47072	-3305.49275
0.82634	78647.29149	2172.92623	94.38564	-3350.29087
0.82395	78552.99009	2171.92623	94.30140	-3395.03920
0.82155	78458.77208	2170.92623	94.21801	-3439.73860
0.81915	78364.63661	2169.92623	94.13547	-3484.38994
0.81676	78270.58283	2168.92623	94.05379	-3528.99407
0.81436	78176.60986	2167.92623	93.97297	-3573.55187
0.81197	78082.71684	2166.92623	93.89302	-3618.06423
0.80957	77988.90288	2165.92623	93.81395	-3662.53203
0.80718	77895.16711	2164.92623	93.73577	-3706.95616
0.80478	77801.50864	2163.92623	93.65848	-3751.33753
0.80239	77707.92656	2162.92623	93.58208	-3795.67705
0.79999	77614.41997	2161.92623	93.50659	-3839.97563
0.79760	77520.98796	2160.92623	93.43201	-3884.23421
0.79520	77427.62961	2159.92623	93.35835	-3928.45371
0.79281	77334.34399	2158.92623	93.28562	-3972.63509
0.79041	77241.13016	2157.92623	93.21383	-4016.77928
0.78802	77147.98718	2156.92623	93.14298	-4060.88725
0.78562	77054.91410	2155.92623	93.07308	-4104.95997
0.78322	76961.90995	2154.92623	93.00415	-4148.99841
0.78083	76868.97377	2153.92623	92.93618	-4193.00357
0.77843	76776.10457	2152.92623	92.86920	-4236.97644
0.77603	76683.30137	2151.92623	92.80320	-4280.91804
0.77363	76590.56316	2150.92623	92.73821	-4324.82937
0.77124	76497.88894	2149.92623	92.67422	-4368.71146
0.76884	76405.27769	2148.92623	92.61125	-4412.56536
0.76644	76312.72838	2147.92623	92.54931	-4456.39212
0.76403	76220.23996	2146.92623	92.48841	-4500.19280
0.76163	76127.81140	2145.92623	92.42857	-4543.96847
0.75923	76035.44161	2144.92623	92.36978	-4587.72021
0.75682	75943.12954	2143.92623	92.31207	-4631.44913
0.75442	75850.87409	2142.92623	92.25545	-4675.15634
0.75201	75758.67416	2141.92623	92.19993	-4718.84296
0.74961	75666.52865	2140.92623	92.14551	-4762.51013
0.74720	75574.43642	2139.92623	92.09223	-4806.15899
0.74479	75482.39634	2138.92623	92.04008	-4849.79071
0.74238	75390.40727	2137.92623	91.98908	-4893.40648
0.73996	75298.46802	2136.92623	91.93925	-4937.00749
0.73755	75206.57743	2135.92623	91.89059	-4980.59494
0.73513	75114.73429	2134.92623	91.84314	-5024.17006
0.73272	75022.93740	2133.92623	91.79689	-5067.73409
0.73030	74931.18554	2132.92623	91.75187	-5111.28829
0.72788	74839.47745	2131.92623	91.70809	-5154.83394
0.72545	74747.81187	2130.92623	91.66557	-5198.37233
0.72303	74656.18754	2129.92623	91.62433	-5241.90476
0.72060	74564.60316	2128.92623	91.58438	-5285.43256
0.71817	74473.05742	2127.92623	91.54574	-5328.95709
0.71574	74381.54898	2126.92623	91.50844	-5372.47971
0.71331	74290.07650	2125.92623	91.47248	-5416.00181
0.71087	74198.63860	2124.92623	91.43790	-5459.52479
0.70843	74107.23390	2123.92623	91.40470	-5503.05009
0.70599	74015.86099	2122.92623	91.37291	-5546.57914
0.70355	73924.51843	2121.92623	91.34256	-5590.11344
0.70110	73833.20477	2120.92623	91.31366	-5633.65447
0.69865	73741.91853	2119.92623	91.28624	-5677.20375
0.69620	73650.65821	2118.92623	91.26032	-5720.76283
0.69375	73559.42229	2117.92623	91.23592	-5764.33328
0.69129	73468.20922	2116.92623	91.21308	-5807.91668
0.68883	73377.01741	2115.92623	91.19180	-5851.51468
0.68636	73285.84528	2114.92623	91.17214	-5895.12890
0.68389	73194.69118	2113.92623	91.15410	-5938.76104
0.68142	73103.55347	2112.92623	91.13771	-5982.41279
0.67895	73012.43045	2111.92623	91.12302	-6026.08591
0.67647	72921.32042	2110.92623	91.11004	-6069.78214
0.67399	72830.22161	2109.92623	91.09880	-6113.50330
0.67150	72739.13226	2108.92623	91.08935	-6157.25121
0.66901	72648.05056	2107.92623	91.08171	-6201.02775
0.66651	72556.97465	2106.92623	91.07591	-6244.83481
0.66402	72465.90266	2105.92623	91.07199	-6288.67434
0.66151	72374.83267	2104.92623	91.06999	-6332.54830
0.65901	72283.76273	2103.92623	91.06994	-6376.45872
0.65649	72192.69085	2102.92623	91.07188	-6420.40764
0.65398	72101.61499	2101.92623	91.07586	-6464.39716
0.65145	72010.53308	2100.92623	91.08191	-6508.42942
0.64893	71919.44301	2099.92623	91.09007	-6552.50659
0.64639	71828.34262	2098.92623	91.10039	-6596.63091
0.64386	71737.22970	2097.92623	91.11292	-6640.80464
0.64131	71646.10200	2096.92623	91.12770	-6685.03010
0.63877	71554.95723	2095.92623	91.14477	-6729.30968
0.63621	71463.79303	2094.92623	91.16420	-6773.64578
0.63365	71372.60700	2093.92623	91.18603	-6818.04089
0.63108	71281.39669	2092.92623	91.21031	-6862.49754
0.62851	71190.15959	2091.92623	91.23710	-6907.01831
0.62593	71098.89312	2090.92623	91.26647	-6951.60585
0.62335	71007.59466	2089.92623	91.29846	-6996.26287
0.62076	70916.26152	2088.92623	91.33314	-7040.99215
0.61816	70824.89095	2087.92623	91.37058	-7085.79653
0.61555	70733.48012	2086.92623	91.41083	-7130.67890
0.61294	70642.02614	2085.92623	91.45398	-7175.64226
0.61032	70550.52605	2084.92623	91.50009	-7220.68965
0.60769	70458.97682	2083.92623	91.54923	-7265.82419
0.60505	70367.37533	2082.92623	91.60149	-7311.04911
0.60241	70275.71838	2081.92623	91.65694	-7356.36768
0.59975	70184.00271	2080.92623	91.71567	-7401.78328
0.59709	70092.22494	2079.92623	91.77777	-7447.29938
0.59442	70000.38163	2078.92623	91.84331	-7492.91953
0.59174	69908.46922	2077.92623	91.91241	-7538.64739
0.58906	69816.48408	2076.92623	91.98515	-7584.48670
0.58636	69724.42244	2075.92623	92.06163	-7630.44133
0.58365	69632.28047	2074.92623	92.14197	-7676.51523
0.58093	69540.05420	2073.92623	92.22627	-7722.71249
0.57821	69447.73955	2072.92623	92.31465	-7769.03730
0.57547	69355.33232	2071.92623	92.40723	-7815.49398
0.57272	69262.82819	2070.92623	92.50413	-7862.08697
0.56996	69170.22271	2069.92623	92.60548	-7908.82085
0.56719	69077.51130	2068.92623	92.71142	-7955.70034
0.56441	68984.68921	2067.92623	92.82209	-8002.73029
0.56161	68891.75157	2066.92623	92.93764	-8049.91573
0.55880	68798.69334	2065.92623	93.05822	-8097.26183
0.55598	68705.50933	2064.92623	93.18401	-8144.77392
0.55315	68612.19418	2063.92623	93.31516	-8192.45751
0.55030	68518.74232	2062.92623	93.45185	-8240.31831
0.54744	68425.14804	2061.92623	93.59428	-8288.36218
0.54457	68331.40541	2060.92623	93.74264	-8336.59523
0.54168	68237.50828	2059.92623	93.89713	-8385.02373
0.53878	68143.45032	2058.92623	94.05796	-8433.65419
0.53586	68049.22494	2057.92623	94.22538	-8482.49337
0.53292	67954.82534	2056.92623	94.39960	-8531.54825
0.52997	67860.24445	2055.92623	94.58089	-8580.82605
0.52700	67765.47495	2054.92623	94.76950	-8630.33430
0.52402	67670.50924	2053.92623	94.96571	-8680.08076
0.52101	67575.33942	2052.92623	95.16982	-8730.07354
0.51799	67479.95730	2051.92623	95.38212	-8780.32101
0.51495	67384.35434	2050.92623	95.60296	-8830.83191
0.51189	67288.52169	2049.92623	95.83265	-8881.61531
0.50881	67192.45011	2048.92623	96.07158	-8932.68065
0.50571	67096.12999	2047.92623	96.32012	-8984.03775
0.50259	66999.55132	2046.92623	96.57867	-9035.69685
0.49944	66902.70365	2045.92623	96.84767	-9087.66863
0.49627	66805.57609	2044.92623	97.12756	-9139.96423
0.49308	66708.15725	2043.92623	97.41883	-9192.59525
0.48987	66610.43526	2042.92623	97.72200	-9245.57385
0.48663	66512.39766	2041.92623	98.03760	-9298.91271
0.48336	66414.03146	2040.92623	98.36621	-9352.62511
0.48007	66315.32301	2039.92623	98.70844	-9406.72495
0.47674	66216.25805	2038.92623	99.06497	-9461.22680
0.47339	66116.82158	2037.92623	99.43647	-9516.14593
0.47001	66016.99787	2036.92623	99.82371	-9571.49838
0.46660	65916.77039	2035.92623	100.22748	-9627.30097
0.46316	65816.12175	2034.92623	100.64863	-9683.57143
0.45968	65715.03366	2033.92623	101.08810	-9740.32839
0.45617	65613.48681	2032.92623	101.54685	-9797.59147
0.45262	65511.46086	2031.92623	102.02595	-9855.38138
0.44903	65408.93433	2030.92623	102.52653	-9913.71997
0.44541	65305.88450	2029.92623	103.04983	-9972.63033
0.44174	65202.28734	2028.92623	103.59716	-10032.13688
0.43804	65098.11737	2027.92623	104.16996	-10092.26551
0.43429	64993.34759	2026.92623	104.76978	-10153.04364
0.43049	64887.94931	2025.92623	105.39829	-10214.50040
0.42664	64781.89200	2024.92623	106.05730	-10276.66676
0.42275	64675.14318	2023.92623	106.74882	-10339.57568
0.41880	64567.66820	2022.92623	107.47498	-10403.26231
0.41480	64459.43004	2021.92623	108.23816	-10467.76417
0.41074	64350.38913	2020.92623	109.04092	-10533.12137
0.40662	64240.50304	2019.92623	109.88609	-10599.37689
0.40243	64129.72626	2018.92623	110.77677	-10666.57681
0.39818	64018.00987	2017.92623	111.71639	-10734.77066
0.39387	63905.30118	2016.92623	112.70870	-10804.01177
0.38947	63791.54331	2015.92623	113.75787	-10874.35767
0.38500	63676.67478	2014.92623	114.86853	-10945.87053
0.38045	63560.62898	2013.92623	116.04580	-11018.61770
0.37581	63443.33356	2012.92623	117.29542	-11092.67229
0.37108	63324.70976	2011.92623	118.62380	-11168.11384
0.36625	63204.67165	2010.92623	120.03810	-11245.02914
0.36131	63083.12524	2009.92623	121.54642	-11323.51307
0.35627	62959.96737	2008.92623	123.15786	-11403.66971
0.35111	62835.08460	2007.92623	124.88278	-11485.61352
0.34582	62708.35170	2006.92623	126.73290	-11569.47074
0.34039	62579.63005	2005.92623	128.72164	-11655.38113
0.33482	62448.76567	2004.92623	130.86438	-11743.49984
0.32909	62315.58687	2003.92623	133.17880	-11833.99981
0.32320	62179.90152	2002.92623	135.68535	-11927.07451
0.31712	62041.49377	2001.92623	138.40776	-12022.94123
0.31084	61900.12004	2000.92623	141.37373	-12121.84505
0.30434	61755.50432	1999.92623	144.61572	-12224.06364
0.29760	61607.33238	1998.92623	148.17194	-12329.91300
0.29060	61455.24477	1997.92623	152.08761	-12439.75446
0.28332	61298.82835	1996.92623	156.41641	-12554.00323
0.27571	61137.60599	1995.92623	161.22236	-12673.13866
0.26774	60971.02408	1994.92623	166.58191	-12797.71681
0.25938	60798.43762	1993.92623	172.58646	-12928.38530
0.25056	60619.09275	1992.92623	179.34487	-13065.90093
0.24124	60432.10711	1991.92623	186.98565	-13211.14928
0.23134	60236.44959	1990.92623	195.65752	-13365.16505
0.22079	60030.92393	1989.92623	205.52566	-13529.14856
0.20950	59814.16577	1988.92623	216.75816	-13704.46881
0.19736	59584.67442	1987.92623	229.49136	-13892.63197
0.18428	59340.92082	1986.92623	243.75360	-14095.17367
0.17017	59081.60699	1985.92623	259.31382	-14313.40026
0.15498	58806.18869	1984.92623	275.41831	-14547.86697
0.13878	58515.76060	1983.92623	290.42808	-14797.49390
0.12183	58214.20638	1982.92623	301.55422	-15058.41702
0.10460	57909.01435	1981.92623	305.19204	-15323.17173
0.08777	57610.70153	1980.92623	298.31281	-15581.26478
0.07207	57330.37069	1979.92623	280.33084	-15821.61012
0.05807	57076.62421	1978.92623	253.74648	-16035.60868
0.04605	56853.80421	1977.92623	222.82000	-16218.90703
0.03605	56662.20903	1976.92623	191.59518	-16371.18465
0.02791	56499.42842	1975.92623	162.78061	-16494.82446
0.02140	56361.74661	1974.92623	137.68181	-16593.51436
0.01626	56245.12721	1973.92623	116.61939	-16671.26510
0.01225	56145.75462	1972.92623	99.37259	-16731.87010
0.00915	56060.26841	1971.92623	85.48621	-16778.67128
