Mole fraction of liquid	Heat per mole [J]	Temperature [K]	Apparent heat capacity per mole [J/K]	Latent heat per mole [J]
1.00000	1.09810E5	2690.57688	50.14312	-1.45519E-11
0.99998	1.09805E5	2690.48126	50.14312	-0.43596
0.99729	1.09674E5	2689.48126	130.89021	-77.85744
0.99461	1.09544E5	2688.48126	130.55681	-154.97603
0.99193	1.09414E5	2687.48126	130.22500	-231.79322
0.98926	1.09284E5	2686.48126	129.89476	-308.31049
0.98660	1.09154E5	2685.48126	129.56609	-384.52933
0.98395	1.09025E5	2684.48126	129.23898	-460.45119
0.98131	1.08896E5	2683.48126	128.91342	-536.07753
0.97868	1.08767E5	2682.48126	128.58940	-611.40981
0.97606	1.08639E5	2681.48126	128.26691	-686.44946
0.97344	1.08511E5	2680.48126	127.94595	-761.19792
0.97083	1.08384E5	2679.48126	127.62649	-835.65661
0.96823	1.08256E5	2678.48126	127.30855	-909.82694
0.96564	1.08129E5	2677.48126	126.99210	-983.71034
0.96306	1.08003E5	2676.48126	126.67714	-1057.30819
0.96049	1.07876E5	2675.48126	126.36367	-1130.62190
0.95792	1.07750E5	2674.48126	126.05166	-1203.65285
0.95536	1.07624E5	2673.48126	125.74112	-1276.40241
0.95281	1.07499E5	2672.48126	125.43203	-1348.87195
0.95027	1.07374E5	2671.48126	125.12440	-1421.06284
0.94774	1.07249E5	2670.48126	124.81820	-1492.97643
0.94521	1.07125E5	2669.48126	124.51343	-1564.61407
0.94269	1.07000E5	2668.48126	124.21009	-1635.97710
0.94018	1.06876E5	2667.48126	123.90817	-1707.06684
0.93768	1.06753E5	2666.48126	123.60765	-1777.88463
0.93519	1.06630E5	2665.48126	123.30853	-1848.43178
0.93270	1.06507E5	2664.48126	123.01080	-1918.70960
0.93022	1.06384E5	2663.48126	122.71446	-1988.71939
0.92775	1.06261E5	2662.48126	122.41949	-2058.46245
0.92529	1.06139E5	2661.48126	122.12590	-2127.94006
0.92284	1.06017E5	2660.48126	121.83366	-2197.15351
0.92039	1.05896E5	2659.48126	121.54278	-2266.10407
0.91795	1.05775E5	2658.48126	121.25325	-2334.79300
0.91552	1.05654E5	2657.48126	120.96506	-2403.22157
0.91309	1.05533E5	2656.48126	120.67819	-2471.39103
0.91068	1.05413E5	2655.48126	120.39265	-2539.30262
0.90827	1.05292E5	2654.48126	120.10843	-2606.95759
0.90587	1.05173E5	2653.48126	119.82552	-2674.35716
0.90347	1.05053E5	2652.48126	119.54391	-2741.50256
0.90109	1.04934E5	2651.48126	119.26360	-2808.39501
0.89871	1.04815E5	2650.48126	118.98457	-2875.03572
0.89633	1.04696E5	2649.48126	118.70683	-2941.42590
0.89397	1.04578E5	2648.48126	118.43036	-3007.56674
0.89161	1.04460E5	2647.48126	118.15516	-3073.45944
0.88926	1.04342E5	2646.48126	117.88122	-3139.10518
0.88692	1.04224E5	2645.48126	117.60853	-3204.50514
0.88458	1.04107E5	2644.48126	117.33709	-3269.66049
0.88226	1.03990E5	2643.48126	117.06689	-3334.57241
0.87993	1.03873E5	2642.48126	116.79792	-3399.24204
0.87762	1.03756E5	2641.48126	116.53018	-3463.67055
0.87531	1.03640E5	2640.48126	116.26366	-3527.85908
0.87301	1.03524E5	2639.48126	115.99835	-3591.80877
0.87072	1.03408E5	2638.48126	115.73425	-3655.52076
0.86843	1.03293E5	2637.48126	115.47135	-3718.99617
0.86615	1.03178E5	2636.48126	115.20964	-3782.23613
0.86388	1.03063E5	2635.48126	114.94912	-3845.24175
0.86162	1.02948E5	2634.48126	114.68978	-3908.01416
0.85936	1.02834E5	2633.48126	114.43162	-3970.55444
0.85710	1.02719E5	2632.48126	114.17462	-4032.86370
0.85486	1.02606E5	2631.48126	113.91878	-4094.94303
0.85262	1.02492E5	2630.48126	113.66410	-4156.79352
0.85039	1.02378E5	2629.48126	113.41057	-4218.41625
0.84817	1.02265E5	2628.48126	113.15819	-4279.81229
0.84595	1.02152E5	2627.48126	112.90694	-4340.98272
0.84374	1.02040E5	2626.48126	112.65682	-4401.92859
0.84153	1.01927E5	2625.48126	112.40782	-4462.65097
0.83933	1.01815E5	2624.48126	112.15995	-4523.15091
0.83714	1.01703E5	2623.48126	111.91319	-4583.42946
0.83496	1.01592E5	2622.48126	111.66753	-4643.48765
0.83278	1.01480E5	2621.48126	111.42298	-4703.32653
0.83060	1.01369E5	2620.48126	111.17952	-4762.94711
0.82844	1.01258E5	2619.48126	110.93715	-4822.35044
0.82628	1.01147E5	2618.48126	110.69587	-4881.53752
0.82413	1.01037E5	2617.48126	110.45566	-4940.50937
0.82198	1.00927E5	2616.48126	110.21653	-4999.26700
0.81984	1.00817E5	2615.48126	109.97846	-5057.81141
0.81771	1.00707E5	2614.48126	109.74145	-5116.14360
0.81558	1.00597E5	2613.48126	109.50550	-5174.26457
0.81346	1.00488E5	2612.48126	109.27060	-5232.17530
0.81134	1.00379E5	2611.48126	109.03674	-5289.87677
0.80923	1.00270E5	2610.48126	108.80392	-5347.36996
0.80713	1.00162E5	2609.48126	108.57214	-5404.65584
0.80503	1.00053E5	2608.48126	108.34138	-5461.73538
0.80294	99945.31027	2607.48126	108.11164	-5518.60954
0.80086	99837.42734	2606.48126	107.88292	-5575.27928
0.79878	99729.77213	2605.48126	107.65522	-5631.74555
0.79671	99622.34361	2604.48126	107.42852	-5688.00930
0.79464	99515.14079	2603.48126	107.20282	-5744.07146
0.79258	99408.16267	2602.48126	106.97812	-5799.93298
0.79053	99301.40826	2601.48126	106.75441	-5855.59479
0.78848	99194.87658	2600.48126	106.53168	-5911.05781
0.78644	99088.56665	2599.48126	106.30993	-5966.32297
0.78440	98982.47749	2598.48126	106.08916	-6021.39118
0.78237	98876.60812	2597.48126	105.86937	-6076.26337
0.78034	98770.95759	2596.48126	105.65053	-6130.94043
0.77833	98665.52493	2595.48126	105.43266	-6185.42327
0.77631	98560.30919	2594.48126	105.21574	-6239.71278
0.77430	98455.30942	2593.48126	104.99977	-6293.80988
0.77230	98350.52467	2592.48126	104.78475	-6347.71543
0.77031	98245.95401	2591.48126	104.57067	-6401.43034
0.76832	98141.59649	2590.48126	104.35752	-6454.95547
0.76633	98037.45118	2589.48126	104.14531	-6508.29171
0.76435	97933.51716	2588.48126	103.93402	-6561.43992
0.76238	97829.79351	2587.48126	103.72365	-6614.40098
0.76041	97726.27931	2586.48126	103.51420	-6667.17574
0.75845	97622.97365	2585.48126	103.30566	-6719.76507
0.75649	97519.87562	2584.48126	103.09803	-6772.16982
0.75454	97416.98432	2583.48126	102.89130	-6824.39084
0.75260	97314.29884	2582.48126	102.68547	-6876.42897
0.75066	97211.81831	2581.48126	102.48054	-6928.28505
0.74872	97109.54182	2580.48126	102.27649	-6979.95993
0.74679	97007.46849	2579.48126	102.07333	-7031.45443
0.74487	96905.59745	2578.48126	101.87104	-7082.76939
0.74295	96803.92782	2577.48126	101.66963	-7133.90562
0.74104	96702.45872	2576.48126	101.46910	-7184.86395
0.73913	96601.18929	2575.48126	101.26943	-7235.64519
0.73723	96500.11867	2574.48126	101.07062	-7286.25015
0.73533	96399.24600	2573.48126	100.87267	-7336.67965
0.73344	96298.57042	2572.48126	100.67557	-7386.93448
0.73155	96198.09109	2571.48126	100.47933	-7437.01545
0.72967	96097.80717	2570.48126	100.28393	-7486.92335
0.72779	95997.71780	2569.48126	100.08937	-7536.65897
0.72592	95897.82216	2568.48126	99.89564	-7586.22310
0.72405	95798.11941	2567.48126	99.70275	-7635.61653
0.72219	95698.60873	2566.48126	99.51068	-7684.84003
0.72034	95599.28929	2565.48126	99.31944	-7733.89438
0.71849	95500.16026	2564.48126	99.12902	-7782.78035
0.71664	95401.22084	2563.48126	98.93942	-7831.49871
0.71480	95302.47022	2562.48126	98.75063	-7880.05023
0.71297	95203.90758	2561.48126	98.56264	-7928.43566
0.71113	95105.53212	2560.48126	98.37546	-7976.65577
0.70931	95007.34304	2559.48126	98.18908	-8024.71130
0.70749	94909.33955	2558.48126	98.00349	-8072.60301
0.70567	94811.52085	2557.48126	97.81870	-8120.33164
0.70386	94713.88616	2556.48126	97.63469	-8167.89793
0.70206	94616.43469	2555.48126	97.45147	-8215.30262
0.70026	94519.16567	2554.48126	97.26902	-8262.54645
0.69846	94422.07831	2553.48126	97.08736	-8309.63015
0.69667	94325.17185	2552.48126	96.90646	-8356.55445
0.69488	94228.44551	2551.48126	96.72634	-8403.32007
0.69310	94131.89853	2550.48126	96.54698	-8449.92773
0.69132	94035.53016	2549.48126	96.36838	-8496.37814
0.68955	93939.33963	2548.48126	96.19053	-8542.67203
0.68778	93843.32618	2547.48126	96.01344	-8588.81010
0.68602	93747.48908	2546.48126	95.83710	-8634.79306
0.68426	93651.82757	2545.48126	95.66151	-8680.62162
0.68251	93556.34091	2544.48126	95.48666	-8726.29646
0.68076	93461.02836	2543.48126	95.31255	-8771.81830
0.67902	93365.88919	2542.48126	95.13917	-8817.18781
0.67728	93270.92266	2541.48126	94.96653	-8862.40571
0.67554	93176.12805	2540.48126	94.79461	-8907.47266
0.67381	93081.50463	2539.48126	94.62342	-8952.38935
0.67209	92987.05168	2538.48126	94.45295	-8997.15646
0.67037	92892.76849	2537.48126	94.28319	-9041.77468
0.66865	92798.65433	2536.48126	94.11416	-9086.24467
0.66694	92704.70851	2535.48126	93.94583	-9130.56710
0.66523	92610.93030	2534.48126	93.77821	-9174.74264
0.66353	92517.31901	2533.48126	93.61129	-9218.77196
0.66183	92423.87394	2532.48126	93.44507	-9262.65572
0.66013	92330.59439	2531.48126	93.27955	-9306.39456
0.65844	92237.47966	2530.48126	93.11473	-9349.98916
0.65676	92144.52907	2529.48126	92.95059	-9393.44016
0.65508	92051.74192	2528.48126	92.78714	-9436.74820
0.65340	91959.11754	2527.48126	92.62438	-9479.91394
0.65173	91866.65525	2526.48126	92.46230	-9522.93802
0.65006	91774.35436	2525.48126	92.30089	-9565.82107
0.64840	91682.21420	2524.48126	92.14016	-9608.56373
0.64674	91590.23410	2523.48126	91.98010	-9651.16664
0.64508	91498.41339	2522.48126	91.82071	-9693.63043
0.64343	91406.75142	2521.48126	91.66198	-9735.95572
0.64178	91315.24751	2520.48126	91.50391	-9778.14314
0.64014	91223.90101	2519.48126	91.34650	-9820.19331
0.63850	91132.71126	2518.48126	91.18975	-9862.10685
0.63687	91041.67761	2517.48126	91.03365	-9903.88438
0.63524	90950.79942	2516.48126	90.87819	-9945.52650
0.63361	90860.07603	2515.48126	90.72339	-9987.03384
0.63199	90769.50680	2514.48126	90.56923	-10028.40699
0.63037	90679.09110	2513.48126	90.41570	-10069.64656
0.62876	90588.82828	2512.48126	90.26282	-10110.75316
0.62715	90498.71772	2511.48126	90.11057	-10151.72737
0.62554	90408.75877	2510.48126	89.95894	-10192.56981
0.62394	90318.95082	2509.48126	89.80795	-10233.28106
0.62235	90229.29324	2508.48126	89.65758	-10273.86172
0.62075	90139.78540	2507.48126	89.50784	-10314.31237
0.61916	90050.42668	2506.48126	89.35871	-10354.63359
0.61758	89961.21648	2505.48126	89.21021	-10394.82598
0.61600	89872.15417	2504.48126	89.06231	-10434.89011
0.61442	89783.23914	2503.48126	88.91503	-10474.82656
0.61284	89694.47079	2502.48126	88.76835	-10514.63591
0.61127	89605.84851	2501.48126	88.62228	-10554.31872
0.60971	89517.37170	2500.48126	88.47681	-10593.87557
0.60815	89429.03975	2499.48126	88.33194	-10633.30703
0.60659	89340.85208	2498.48126	88.18767	-10672.61366
0.60503	89252.80809	2497.48126	88.04400	-10711.79602
0.60348	89164.90718	2496.48126	87.90091	-10750.85467
0.60193	89077.14876	2495.48126	87.75841	-10789.79018
0.60039	88989.53226	2494.48126	87.61650	-10828.60309
0.59885	88902.05708	2493.48126	87.47518	-10867.29396
0.59732	88814.72265	2492.48126	87.33443	-10905.86334
0.59578	88727.52838	2491.48126	87.19426	-10944.31177
0.59426	88640.47371	2490.48126	87.05467	-10982.63981
0.59273	88553.55806	2489.48126	86.91565	-11020.84799
0.59121	88466.78085	2488.48126	86.77721	-11058.93686
0.58969	88380.14152	2487.48126	86.63933	-11096.90695
0.58818	88293.63951	2486.48126	86.50201	-11134.75880
0.58667	88207.27425	2485.48126	86.36526	-11172.49295
0.58516	88121.04518	2484.48126	86.22907	-11210.10991
0.58366	88034.95174	2483.48126	86.09344	-11247.61024
0.58216	87948.99338	2482.48126	85.95836	-11284.99444
0.58067	87863.16954	2481.48126	85.82384	-11322.26305
0.57917	87777.47968	2480.48126	85.68986	-11359.41659
0.57769	87691.92324	2479.48126	85.55644	-11396.45557
0.57620	87606.49968	2478.48126	85.42356	-11433.38052
0.57472	87521.20846	2477.48126	85.29122	-11470.19195
0.57324	87436.04904	2476.48126	85.15942	-11506.89037
0.57177	87351.02087	2475.48126	85.02817	-11543.47630
0.57030	87266.12342	2474.48126	84.89745	-11579.95024
0.56883	87181.35616	2473.48126	84.76726	-11616.31270
0.56736	87096.71856	2472.48126	84.63760	-11652.56419
0.56590	87012.21008	2471.48126	84.50848	-11688.70521
0.56445	86927.83020	2470.48126	84.37988	-11724.73625
0.56299	86843.57840	2469.48126	84.25180	-11760.65783
0.56154	86759.45415	2468.48126	84.12425	-11796.47043
0.56010	86675.45693	2467.48126	83.99722	-11832.17454
0.55865	86591.58622	2466.48126	83.87071	-11867.77067
0.55721	86507.84152	2465.48126	83.74471	-11903.25930
0.55577	86424.22229	2464.48126	83.61922	-11938.64091
0.55434	86340.72805	2463.48126	83.49425	-11973.91601
0.55291	86257.35826	2462.48126	83.36978	-12009.08506
0.55148	86174.11243	2461.48126	83.24583	-12044.14855
0.55006	86090.99006	2460.48126	83.12237	-12079.10697
0.54864	86007.99064	2459.48126	82.99942	-12113.96079
0.54722	85925.11366	2458.48126	82.87697	-12148.71048
0.54580	85842.35864	2457.48126	82.75502	-12183.35653
0.54439	85759.72507	2456.48126	82.63357	-12217.89940
0.54299	85677.21246	2455.48126	82.51261	-12252.33957
0.54158	85594.82032	2454.48126	82.39214	-12286.67750
0.54018	85512.54815	2453.48126	82.27216	-12320.91366
0.53878	85430.39548	2452.48126	82.15267	-12355.04852
0.53738	85348.36181	2451.48126	82.03367	-12389.08253
0.53599	85266.44666	2450.48126	81.91515	-12423.01617
0.53460	85184.64954	2449.48126	81.79711	-12456.84989
0.53322	85102.96999	2448.48126	81.67956	-12490.58415
0.53183	85021.40751	2447.48126	81.56248	-12524.21940
0.53045	84939.96163	2446.48126	81.44588	-12557.75611
0.52908	84858.63188	2445.48126	81.32975	-12591.19471
0.52770	84777.41779	2444.48126	81.21409	-12624.53567
0.52633	84696.31888	2443.48126	81.09891	-12657.77943
0.52496	84615.33469	2442.48126	80.98419	-12690.92644
0.52360	84534.46475	2441.48126	80.86994	-12723.97714
0.52224	84453.70860	2440.48126	80.75616	-12756.93198
0.52088	84373.06576	2439.48126	80.64283	-12789.79140
0.51952	84292.53579	2438.48126	80.52997	-12822.55585
0.51817	84212.11822	2437.48126	80.41757	-12855.22576
0.51682	84131.81259	2436.48126	80.30563	-12887.80156
0.51547	84051.61845	2435.48126	80.19414	-12920.28370
0.51413	83971.53535	2434.48126	80.08310	-12952.67261
0.51278	83891.56283	2433.48126	79.97252	-12984.96872
0.51145	83811.70044	2432.48126	79.86239	-13017.17245
0.51011	83731.94773	2431.48126	79.75271	-13049.28426
0.50878	83652.30426	2430.48126	79.64347	-13081.30455
0.50745	83572.76958	2429.48126	79.53468	-13113.23375
0.50612	83493.34325	2428.48126	79.42633	-13145.07230
0.50479	83414.02483	2427.48126	79.31842	-13176.82061
0.50347	83334.81387	2426.48126	79.21096	-13208.47910
0.50215	83255.70994	2425.48126	79.10393	-13240.04820
0.50084	83176.71260	2424.48126	78.99734	-13271.52832
0.49952	83097.82142	2423.48126	78.89118	-13302.91988
0.49821	83019.03596	2422.48126	78.78546	-13334.22330
0.49690	82940.35579	2421.48126	78.68017	-13365.43900
0.49560	82861.78049	2420.48126	78.57531	-13396.56737
0.49430	82783.30961	2419.48126	78.47088	-13427.60884
0.49300	82704.94274	2418.48126	78.36687	-13458.56382
0.49170	82626.67945	2417.48126	78.26329	-13489.43271
0.49040	82548.51931	2416.48126	78.16014	-13520.21592
0.48911	82470.46191	2415.48126	78.05740	-13550.91386
0.48782	82392.50682	2414.48126	77.95509	-13581.52693
0.48654	82314.65362	2413.48126	77.85320	-13612.05554
0.48525	82236.90190	2412.48126	77.75172	-13642.50009
0.48397	82159.25124	2411.48126	77.65066	-13672.86097
0.48269	82081.70122	2410.48126	77.55002	-13703.13859
0.48141	82004.25144	2409.48126	77.44979	-13733.33334
0.48014	81926.90147	2408.48126	77.34997	-13763.44562
0.47887	81849.65091	2407.48126	77.25056	-13793.47583
0.47760	81772.49936	2406.48126	77.15156	-13823.42437
0.47633	81695.44639	2405.48126	77.05297	-13853.29161
0.47507	81618.49161	2404.48126	76.95478	-13883.07796
0.47381	81541.63461	2403.48126	76.85700	-13912.78381
0.47255	81464.87499	2402.48126	76.75962	-13942.40954
0.47129	81388.21235	2401.48126	76.66264	-13971.95554
0.47004	81311.64628	2400.48126	76.56607	-14001.42221
0.46879	81235.17638	2399.48126	76.46989	-14030.80992
0.46754	81158.80227	2398.48126	76.37412	-14060.11905
0.46629	81082.52354	2397.48126	76.27873	-14089.35000
0.46505	81006.33979	2396.48126	76.18375	-14118.50315
0.46381	80930.25063	2395.48126	76.08916	-14147.57887
0.46257	80854.25567	2394.48126	75.99496	-14176.57755
0.46133	80778.35452	2393.48126	75.90115	-14205.49957
0.46009	80702.54679	2392.48126	75.80773	-14234.34529
0.45886	80626.83209	2391.48126	75.71470	-14263.11511
0.45763	80551.21003	2390.48126	75.62206	-14291.80939
0.45640	80475.68022	2389.48126	75.52981	-14320.42851
0.45518	80400.24228	2388.48126	75.43794	-14348.97284
0.45395	80324.89582	2387.48126	75.34646	-14377.44276
0.45273	80249.64046	2386.48126	75.25535	-14405.83864
0.45151	80174.47583	2385.48126	75.16464	-14434.16084
0.45030	80099.40153	2384.48126	75.07430	-14462.40974
0.44908	80024.41720	2383.48126	74.98434	-14490.58570
0.44787	79949.52244	2382.48126	74.89476	-14518.68910
0.44666	79874.71689	2381.48126	74.80555	-14546.72030
0.44545	79800.00016	2380.48126	74.71672	-14574.67967
0.44425	79725.37189	2379.48126	74.62827	-14602.56756
0.44305	79650.83170	2378.48126	74.54019	-14630.38435
0.44184	79576.37921	2377.48126	74.45249	-14658.13040
0.44065	79502.01405	2376.48126	74.36516	-14685.80606
0.43945	79427.73586	2375.48126	74.27819	-14713.41171
0.43825	79353.54426	2374.48126	74.19160	-14740.94769
0.43706	79279.43888	2373.48126	74.10538	-14768.41438
0.43587	79205.41937	2372.48126	74.01952	-14795.81212
0.43468	79131.48534	2371.48126	73.93403	-14823.14129
0.43350	79057.63643	2370.48126	73.84891	-14850.40222
0.43231	78983.87228	2369.48126	73.76415	-14877.59529
0.43113	78910.19253	2368.48126	73.67975	-14904.72084
0.42995	78836.59681	2367.48126	73.59572	-14931.77924
0.42877	78763.08475	2366.48126	73.51205	-14958.77082
0.42760	78689.65601	2365.48126	73.42874	-14985.69596
0.42642	78616.31021	2364.48126	73.34580	-15012.55500
0.42525	78543.04700	2363.48126	73.26321	-15039.34829
0.42408	78469.86602	2362.48126	73.18098	-15066.07618
0.42291	78396.76692	2361.48126	73.09911	-15092.73902
0.42175	78323.74933	2360.48126	73.01759	-15119.33718
0.42058	78250.81289	2359.48126	72.93643	-15145.87098
0.41942	78177.95726	2358.48126	72.85563	-15172.34078
0.41826	78105.18208	2357.48126	72.77518	-15198.74694
0.41710	78032.48700	2356.48126	72.69508	-15225.08979
0.41594	77959.87166	2355.48126	72.61534	-15251.36969
0.41479	77887.33571	2354.48126	72.53595	-15277.58697
0.41364	77814.87879	2353.48126	72.45691	-15303.74199
0.41249	77742.50057	2352.48126	72.37823	-15329.83509
0.41134	77670.20068	2351.48126	72.29989	-15355.86662
0.41019	77597.97878	2350.48126	72.22190	-15381.83691
0.40904	77525.83452	2349.48126	72.14426	-15407.74632
0.40790	77453.76756	2348.48126	72.06697	-15433.59518
0.40676	77381.77753	2347.48126	71.99002	-15459.38384
0.40562	77309.86411	2346.48126	71.91343	-15485.11264
0.40448	77238.02693	2345.48126	71.83717	-15510.78193
0.40334	77166.26567	2344.48126	71.76127	-15536.39203
0.40221	77094.57996	2343.48126	71.68571	-15561.94330
0.40108	77022.96947	2342.48126	71.61049	-15587.43608
0.39995	76951.43385	2341.48126	71.53562	-15612.87070
0.39882	76879.97276	2340.48126	71.46109	-15638.24750
0.39769	76808.58586	2339.48126	71.38690	-15663.56683
0.39656	76737.27280	2338.48126	71.31306	-15688.82902
0.39544	76666.03325	2337.48126	71.23956	-15714.03441
0.39431	76594.86685	2336.48126	71.16639	-15739.18334
0.39319	76523.77328	2335.48126	71.09357	-15764.27615
0.39207	76452.75218	2334.48126	71.02110	-15789.31317
0.39096	76381.80323	2333.48126	70.94896	-15814.29475
0.38984	76310.92607	2332.48126	70.87716	-15839.22122
0.38873	76240.12038	2331.48126	70.80570	-15864.09292
0.38761	76169.38580	2330.48126	70.73457	-15888.91018
0.38650	76098.72201	2329.48126	70.66379	-15913.67335
0.38539	76028.12867	2328.48126	70.59335	-15938.38276
0.38428	75957.60543	2327.48126	70.52324	-15963.03874
0.38318	75887.15196	2326.48126	70.45347	-15987.64163
0.38207	75816.76792	2325.48126	70.38404	-16012.19178
0.38097	75746.45297	2324.48126	70.31494	-16036.68951
0.37987	75676.20679	2323.48126	70.24619	-16061.13516
0.37876	75606.02902	2322.48126	70.17777	-16085.52907
0.37767	75535.91934	2321.48126	70.10968	-16109.87157
0.37657	75465.87741	2320.48126	70.04193	-16134.16300
0.37547	75395.90289	2319.48126	69.97452	-16158.40370
0.37438	75325.99544	2318.48126	69.90745	-16182.59401
0.37328	75256.15474	2317.48126	69.84071	-16206.73425
0.37219	75186.38044	2316.48126	69.77430	-16230.82478
0.37110	75116.67220	2315.48126	69.70823	-16254.86591
0.37001	75047.02970	2314.48126	69.64250	-16278.85800
0.36892	74977.45260	2313.48126	69.57710	-16302.80137
