Mole fraction of liquid	Heat per mole [J]	Temperature [K]	Apparent heat capacity per mole [J/K]	Latent heat per mole [J]
1.00000	1.09155E5	2683.41944	49.81300	1.45519E-11
0.99999	1.09150E5	2683.32382	49.81300	-0.41639
0.99737	1.09022E5	2682.32382	127.34623	-74.34922
0.99477	1.08895E5	2681.32382	127.02839	-147.99460
0.99218	1.08769E5	2680.32382	126.71204	-221.35392
0.98959	1.08642E5	2679.32382	126.39717	-294.42858
0.98701	1.08516E5	2678.32382	126.08378	-367.21996
0.98444	1.08390E5	2677.32382	125.77186	-439.72944
0.98188	1.08265E5	2676.32382	125.46139	-511.95839
0.97932	1.08140E5	2675.32382	125.15237	-583.90817
0.97678	1.08015E5	2674.32382	124.84480	-655.58014
0.97424	1.07890E5	2673.32382	124.53866	-726.97564
0.97171	1.07766E5	2672.32382	124.23395	-798.09601
0.96919	1.07642E5	2671.32382	123.93065	-868.94259
0.96668	1.07519E5	2670.32382	123.62877	-939.51669
0.96417	1.07395E5	2669.32382	123.32829	-1009.81963
0.96167	1.07272E5	2668.32382	123.02920	-1079.85273
0.95919	1.07150E5	2667.32382	122.73150	-1149.61728
0.95670	1.07027E5	2666.32382	122.43517	-1219.11458
0.95423	1.06905E5	2665.32382	122.14022	-1288.34592
0.95176	1.06783E5	2664.32382	121.84663	-1357.31258
0.94931	1.06662E5	2663.32382	121.55440	-1426.01582
0.94686	1.06540E5	2662.32382	121.26351	-1494.45692
0.94441	1.06419E5	2661.32382	120.97397	-1562.63713
0.94198	1.06299E5	2660.32382	120.68576	-1630.55771
0.93955	1.06178E5	2659.32382	120.39887	-1698.21990
0.93713	1.06058E5	2658.32382	120.11331	-1765.62494
0.93472	1.05938E5	2657.32382	119.82905	-1832.77406
0.93231	1.05819E5	2656.32382	119.54610	-1899.66849
0.92991	1.05700E5	2655.32382	119.26445	-1966.30943
0.92752	1.05581E5	2654.32382	118.98408	-2032.69812
0.92514	1.05462E5	2653.32382	118.70500	-2098.83573
0.92277	1.05343E5	2652.32382	118.42720	-2164.72349
0.92040	1.05225E5	2651.32382	118.15066	-2230.36257
0.91804	1.05107E5	2650.32382	117.87538	-2295.75416
0.91569	1.04990E5	2649.32382	117.60136	-2360.89944
0.91334	1.04872E5	2648.32382	117.32859	-2425.79957
0.91100	1.04755E5	2647.32382	117.05706	-2490.45574
0.90867	1.04639E5	2646.32382	116.78676	-2554.86908
0.90635	1.04522E5	2645.32382	116.51769	-2619.04077
0.90403	1.04406E5	2644.32382	116.24984	-2682.97193
0.90172	1.04290E5	2643.32382	115.98320	-2746.66372
0.89942	1.04174E5	2642.32382	115.71777	-2810.11726
0.89712	1.04059E5	2641.32382	115.45355	-2873.33368
0.89483	1.03944E5	2640.32382	115.19051	-2936.31411
0.89255	1.03829E5	2639.32382	114.92867	-2999.05966
0.89027	1.03714E5	2638.32382	114.66800	-3061.57143
0.88801	1.03599E5	2637.32382	114.40851	-3123.85054
0.88574	1.03485E5	2636.32382	114.15019	-3185.89807
0.88349	1.03371E5	2635.32382	113.89303	-3247.71513
0.88124	1.03258E5	2634.32382	113.63703	-3309.30278
0.87900	1.03144E5	2633.32382	113.38217	-3370.66213
0.87677	1.03031E5	2632.32382	113.12846	-3431.79423
0.87454	1.02918E5	2631.32382	112.87589	-3492.70015
0.87232	1.02806E5	2630.32382	112.62445	-3553.38096
0.87011	1.02693E5	2629.32382	112.37413	-3613.83772
0.86790	1.02581E5	2628.32382	112.12494	-3674.07147
0.86570	1.02469E5	2627.32382	111.87685	-3734.08326
0.86350	1.02358E5	2626.32382	111.62988	-3793.87413
0.86132	1.02246E5	2625.32382	111.38400	-3853.44511
0.85914	1.02135E5	2624.32382	111.13922	-3912.79723
0.85696	1.02024E5	2623.32382	110.89553	-3971.93152
0.85479	1.01914E5	2622.32382	110.65292	-4030.84898
0.85263	1.01803E5	2621.32382	110.41139	-4089.55064
0.85048	1.01693E5	2620.32382	110.17093	-4148.03750
0.84833	1.01583E5	2619.32382	109.93154	-4206.31056
0.84619	1.01474E5	2618.32382	109.69321	-4264.37082
0.84405	1.01364E5	2617.32382	109.45593	-4322.21926
0.84192	1.01255E5	2616.32382	109.21970	-4379.85688
0.83980	1.01146E5	2615.32382	108.98452	-4437.28464
0.83768	1.01037E5	2614.32382	108.75037	-4494.50354
0.83557	1.00929E5	2613.32382	108.51726	-4551.51453
0.83347	1.00820E5	2612.32382	108.28518	-4608.31859
0.83137	1.00712E5	2611.32382	108.05411	-4664.91666
0.82928	1.00604E5	2610.32382	107.82407	-4721.30971
0.82719	1.00497E5	2609.32382	107.59503	-4777.49869
0.82511	1.00389E5	2608.32382	107.36700	-4833.48454
0.82304	1.00282E5	2607.32382	107.13997	-4889.26819
0.82097	1.00175E5	2606.32382	106.91393	-4944.85059
0.81891	1.00069E5	2605.32382	106.68889	-5000.23267
0.81685	99962.25879	2604.32382	106.46483	-5055.41534
0.81480	99856.01704	2603.32382	106.24175	-5110.39953
0.81276	99749.99740	2602.32382	106.01964	-5165.18615
0.81072	99644.19889	2601.32382	105.79851	-5219.77612
0.80869	99538.62056	2600.32382	105.57833	-5274.17033
0.80666	99433.26144	2599.32382	105.35912	-5328.36970
0.80464	99328.12058	2598.32382	105.14086	-5382.37511
0.80263	99223.19702	2597.32382	104.92355	-5436.18747
0.80062	99118.48984	2596.32382	104.70719	-5489.80764
0.79862	99013.99808	2595.32382	104.49176	-5543.23653
0.79662	98909.72081	2594.32382	104.27727	-5596.47500
0.79463	98805.65710	2593.32382	104.06371	-5649.52393
0.79264	98701.80603	2592.32382	103.85107	-5702.38418
0.79066	98598.16668	2591.32382	103.63935	-5755.05663
0.78869	98494.73813	2590.32382	103.42855	-5807.54213
0.78672	98391.51947	2589.32382	103.21866	-5859.84154
0.78476	98288.50980	2588.32382	103.00967	-5911.95570
0.78280	98185.70821	2587.32382	102.80159	-5963.88547
0.78085	98083.11381	2586.32382	102.59440	-6015.63168
0.77890	97980.72571	2585.32382	102.38810	-6067.19518
0.77696	97878.54302	2584.32382	102.18269	-6118.57680
0.77502	97776.56485	2583.32382	101.97817	-6169.77737
0.77309	97674.79033	2582.32382	101.77452	-6220.79770
0.77117	97573.21859	2581.32382	101.57174	-6271.63864
0.76925	97471.84875	2580.32382	101.36984	-6322.30098
0.76734	97370.67995	2579.32382	101.16880	-6372.78555
0.76543	97269.71133	2578.32382	100.96862	-6423.09315
0.76353	97168.94204	2577.32382	100.76929	-6473.22458
0.76163	97068.37121	2576.32382	100.57082	-6523.18065
0.75974	96967.99802	2575.32382	100.37320	-6572.96216
0.75785	96867.82161	2574.32382	100.17641	-6622.56988
0.75597	96767.84114	2573.32382	99.98047	-6672.00463
0.75409	96668.05578	2572.32382	99.78536	-6721.26717
0.75222	96568.46470	2571.32382	99.59108	-6770.35828
0.75035	96469.06708	2570.32382	99.39762	-6819.27875
0.74849	96369.86209	2569.32382	99.20499	-6868.02935
0.74664	96270.84891	2568.32382	99.01318	-6916.61084
0.74479	96172.02673	2567.32382	98.82218	-6965.02400
0.74294	96073.39475	2566.32382	98.63198	-7013.26957
0.74110	95974.95215	2565.32382	98.44260	-7061.34832
0.73927	95876.69814	2564.32382	98.25401	-7109.26100
0.73744	95778.63192	2563.32382	98.06622	-7157.00836
0.73561	95680.75270	2562.32382	97.87923	-7204.59115
0.73379	95583.05968	2561.32382	97.69302	-7252.01011
0.73197	95485.55208	2560.32382	97.50760	-7299.26597
0.73016	95388.22912	2559.32382	97.32296	-7346.35948
0.72836	95291.09002	2558.32382	97.13910	-7393.29136
0.72656	95194.13402	2557.32382	96.95601	-7440.06233
0.72476	95097.36033	2556.32382	96.77369	-7486.67313
0.72297	95000.76820	2555.32382	96.59213	-7533.12448
0.72119	94904.35686	2554.32382	96.41134	-7579.41709
0.71941	94808.12556	2553.32382	96.23130	-7625.55167
0.71763	94712.07353	2552.32382	96.05202	-7671.52893
0.71586	94616.20004	2551.32382	95.87349	-7717.34959
0.71409	94520.50433	2550.32382	95.69571	-7763.01433
0.71233	94424.98565	2549.32382	95.51867	-7808.52387
0.71057	94329.64328	2548.32382	95.34237	-7853.87890
0.70882	94234.47647	2547.32382	95.16681	-7899.08010
0.70707	94139.48450	2546.32382	94.99198	-7944.12818
0.70533	94044.66663	2545.32382	94.81787	-7989.02381
0.70359	93950.02213	2544.32382	94.64449	-8033.76767
0.70186	93855.55030	2543.32382	94.47184	-8078.36046
0.70013	93761.25040	2542.32382	94.29990	-8122.80283
0.69840	93667.12173	2541.32382	94.12867	-8167.09547
0.69668	93573.16357	2540.32382	93.95816	-8211.23904
0.69497	93479.37522	2539.32382	93.78835	-8255.23421
0.69326	93385.75598	2538.32382	93.61925	-8299.08164
0.69155	93292.30513	2537.32382	93.45084	-8342.78200
0.68985	93199.02200	2536.32382	93.28314	-8386.33593
0.68815	93105.90587	2535.32382	93.11612	-8429.74409
0.68646	93012.95607	2534.32382	92.94980	-8473.00714
0.68477	92920.17191	2533.32382	92.78417	-8516.12571
0.68309	92827.55269	2532.32382	92.61921	-8559.10045
0.68141	92735.09775	2531.32382	92.45494	-8601.93201
0.67973	92642.80640	2530.32382	92.29135	-8644.62101
0.67806	92550.67798	2529.32382	92.12842	-8687.16810
0.67640	92458.71181	2528.32382	91.96617	-8729.57391
0.67474	92366.90722	2527.32382	91.80459	-8771.83906
0.67308	92275.26355	2526.32382	91.64367	-8813.96418
0.67142	92183.78014	2525.32382	91.48341	-8855.94989
0.66978	92092.45633	2524.32382	91.32381	-8897.79682
0.66813	92001.29148	2523.32382	91.16486	-8939.50558
0.66649	91910.28491	2522.32382	91.00656	-8981.07677
0.66485	91819.43600	2521.32382	90.84891	-9022.51103
0.66322	91728.74409	2520.32382	90.69191	-9063.80894
0.66159	91638.20855	2519.32382	90.53555	-9104.97112
0.65997	91547.82873	2518.32382	90.37982	-9145.99817
0.65835	91457.60399	2517.32382	90.22473	-9186.89069
0.65674	91367.53371	2516.32382	90.07028	-9227.64928
0.65512	91277.61726	2515.32382	89.91645	-9268.27452
0.65352	91187.85401	2514.32382	89.76325	-9308.76701
0.65191	91098.24333	2513.32382	89.61068	-9349.12735
0.65032	91008.78461	2512.32382	89.45872	-9389.35610
0.64872	90919.47722	2511.32382	89.30739	-9429.45387
0.64713	90830.32055	2510.32382	89.15666	-9469.42122
0.64554	90741.31400	2509.32382	89.00655	-9509.25874
0.64396	90652.45695	2508.32382	88.85705	-9548.96699
0.64238	90563.74879	2507.32382	88.70816	-9588.54656
0.64081	90475.18892	2506.32382	88.55987	-9627.99801
0.63924	90386.77675	2505.32382	88.41218	-9667.32191
0.63767	90298.51166	2504.32382	88.26508	-9706.51882
0.63611	90210.39308	2503.32382	88.11858	-9745.58930
0.63455	90122.42040	2502.32382	87.97268	-9784.53392
0.63299	90034.59305	2501.32382	87.82736	-9823.35323
0.63144	89946.91042	2500.32382	87.68263	-9862.04778
0.62989	89859.37194	2499.32382	87.53848	-9900.61813
0.62835	89771.97702	2498.32382	87.39491	-9939.06482
0.62681	89684.72510	2497.32382	87.25193	-9977.38840
0.62527	89597.61558	2496.32382	87.10951	-10015.58941
0.62374	89510.64791	2495.32382	86.96768	-10053.66841
0.62221	89423.82150	2494.32382	86.82641	-10091.62591
0.62069	89337.13579	2493.32382	86.68571	-10129.46247
0.61917	89250.59022	2492.32382	86.54557	-10167.17862
0.61765	89164.18423	2491.32382	86.40600	-10204.77488
0.61614	89077.91724	2490.32382	86.26698	-10242.25179
0.61463	88991.78872	2489.32382	86.12853	-10279.60987
0.61312	88905.79809	2488.32382	85.99062	-10316.84966
0.61162	88819.94482	2487.32382	85.85328	-10353.97166
0.61012	88734.22834	2486.32382	85.71648	-10390.97641
0.60863	88648.64812	2485.32382	85.58022	-10427.86442
0.60714	88563.20360	2484.32382	85.44452	-10464.63620
0.60565	88477.89425	2483.32382	85.30935	-10501.29226
0.60416	88392.71953	2482.32382	85.17472	-10537.83313
0.60268	88307.67889	2481.32382	85.04063	-10574.25930
0.60121	88222.77181	2480.32382	84.90708	-10610.57129
0.59973	88137.99775	2479.32382	84.77406	-10646.76959
0.59826	88053.35619	2478.32382	84.64157	-10682.85472
0.59680	87968.84658	2477.32382	84.50960	-10718.82716
0.59533	87884.46842	2476.32382	84.37817	-10754.68742
0.59387	87800.22117	2475.32382	84.24725	-10790.43599
0.59242	87716.10431	2474.32382	84.11685	-10826.07337
0.59097	87632.11734	2473.32382	83.98698	-10861.60004
0.58952	87548.25972	2472.32382	83.85762	-10897.01650
0.58807	87464.53095	2471.32382	83.72877	-10932.32322
0.58663	87380.93052	2470.32382	83.60043	-10967.52071
0.58519	87297.45792	2469.32382	83.47260	-11002.60944
0.58375	87214.11264	2468.32382	83.34528	-11037.58988
0.58232	87130.89417	2467.32382	83.21847	-11072.46252
0.58089	87047.80202	2466.32382	83.09215	-11107.22784
0.57947	86964.83568	2465.32382	82.96634	-11141.88631
0.57805	86881.99466	2464.32382	82.84102	-11176.43839
0.57663	86799.27846	2463.32382	82.71620	-11210.88457
0.57521	86716.68659	2462.32382	82.59187	-11245.22531
0.57380	86634.21856	2461.32382	82.46804	-11279.46108
0.57239	86551.87387	2460.32382	82.34469	-11313.59233
0.57099	86469.65204	2459.32382	82.22183	-11347.61954
0.56958	86387.55259	2458.32382	82.09945	-11381.54316
0.56819	86305.57503	2457.32382	81.97756	-11415.36366
0.56679	86223.71888	2456.32382	81.85615	-11449.08148
0.56540	86141.98367	2455.32382	81.73521	-11482.69709
0.56401	86060.36891	2454.32382	81.61476	-11516.21093
0.56262	85978.87414	2453.32382	81.49477	-11549.62346
0.56124	85897.49888	2452.32382	81.37526	-11582.93513
0.55986	85816.24265	2451.32382	81.25622	-11616.14638
0.55848	85735.10500	2450.32382	81.13765	-11649.25766
0.55711	85654.08546	2449.32382	81.01954	-11682.26941
0.55574	85573.18355	2448.32382	80.90190	-11715.18208
0.55437	85492.39883	2447.32382	80.78472	-11747.99610
0.55301	85411.73083	2446.32382	80.66800	-11780.71191
0.55165	85331.17908	2445.32382	80.55174	-11813.32995
0.55029	85250.74314	2444.32382	80.43594	-11845.85065
0.54893	85170.42255	2443.32382	80.32059	-11878.27445
0.54758	85090.21686	2442.32382	80.20569	-11910.60178
0.54623	85010.12561	2441.32382	80.09125	-11942.83306
0.54489	84930.14836	2440.32382	79.97725	-11974.96873
0.54354	84850.28467	2439.32382	79.86370	-12007.00921
0.54220	84770.53408	2438.32382	79.75059	-12038.95492
0.54086	84690.89615	2437.32382	79.63793	-12070.80629
0.53953	84611.37044	2436.32382	79.52571	-12102.56373
0.53820	84531.95652	2435.32382	79.41392	-12134.22768
0.53687	84452.65394	2434.32382	79.30258	-12165.79853
0.53555	84373.46227	2433.32382	79.19167	-12197.27672
0.53422	84294.38107	2432.32382	79.08120	-12228.66265
0.53290	84215.40992	2431.32382	78.97115	-12259.95674
0.53159	84136.54837	2430.32382	78.86154	-12291.15939
0.53027	84057.79602	2429.32382	78.75236	-12322.27102
0.52896	83979.15242	2428.32382	78.64360	-12353.29204
0.52765	83900.61715	2427.32382	78.53527	-12384.22285
0.52635	83822.18978	2426.32382	78.42736	-12415.06385
0.52505	83743.86991	2425.32382	78.31988	-12445.81546
0.52375	83665.65710	2424.32382	78.21281	-12476.47806
0.52245	83587.55094	2423.32382	78.10616	-12507.05207
0.52116	83509.55101	2422.32382	77.99993	-12537.53788
0.51986	83431.65689	2421.32382	77.89411	-12567.93588
0.51857	83353.86818	2420.32382	77.78871	-12598.24647
0.51729	83276.18446	2419.32382	77.68372	-12628.47005
0.51601	83198.60532	2418.32382	77.57914	-12658.60701
0.51473	83121.13036	2417.32382	77.47497	-12688.65774
0.51345	83043.75916	2416.32382	77.37120	-12718.62263
0.51217	82966.49132	2415.32382	77.26784	-12748.50207
0.51090	82889.32644	2414.32382	77.16488	-12778.29644
0.50963	82812.26411	2413.32382	77.06233	-12808.00614
0.50836	82735.30394	2412.32382	76.96017	-12837.63153
0.50710	82658.44552	2411.32382	76.85842	-12867.17302
0.50584	82581.68847	2410.32382	76.75706	-12896.63097
0.50458	82505.03237	2409.32382	76.65610	-12926.00577
0.50332	82428.47684	2408.32382	76.55553	-12955.29780
0.50207	82352.02149	2407.32382	76.45535	-12984.50743
0.50082	82275.66593	2406.32382	76.35557	-13013.63505
0.49957	82199.40975	2405.32382	76.25617	-13042.68101
0.49832	82123.25259	2404.32382	76.15717	-13071.64571
0.49708	82047.19404	2403.32382	76.05855	-13100.52950
0.49584	81971.23373	2402.32382	75.96031	-13129.33276
0.49460	81895.37126	2401.32382	75.86246	-13158.05586
0.49336	81819.60627	2400.32382	75.76500	-13186.69917
0.49213	81743.93836	2399.32382	75.66791	-13215.26306
0.49090	81668.36716	2398.32382	75.57120	-13243.74788
0.48967	81592.89228	2397.32382	75.47487	-13272.15401
0.48844	81517.51336	2396.32382	75.37892	-13300.48180
0.48722	81442.23001	2395.32382	75.28335	-13328.73162
0.48600	81367.04187	2394.32382	75.18814	-13356.90384
0.48478	81291.94855	2393.32382	75.09332	-13384.99880
0.48356	81216.94970	2392.32382	74.99886	-13413.01686
0.48235	81142.04493	2391.32382	74.90477	-13440.95839
0.48113	81067.23387	2390.32382	74.81105	-13468.82375
0.47992	80992.51618	2389.32382	74.71770	-13496.61327
0.47872	80917.89146	2388.32382	74.62471	-13524.32732
0.47751	80843.35937	2387.32382	74.53209	-13551.96626
0.47631	80768.91953	2386.32382	74.43984	-13579.53042
0.47511	80694.57159	2385.32382	74.34794	-13607.02017
0.47391	80620.31518	2384.32382	74.25641	-13634.43585
0.47272	80546.14995	2383.32382	74.16523	-13661.77780
0.47152	80472.07553	2382.32382	74.07442	-13689.04639
0.47033	80398.09157	2381.32382	73.98396	-13716.24194
0.46915	80324.19771	2380.32382	73.89386	-13743.36481
0.46796	80250.39360	2379.32382	73.80411	-13770.41534
0.46678	80176.67889	2378.32382	73.71472	-13797.39387
0.46559	80103.05321	2377.32382	73.62568	-13824.30075
0.46441	80029.51622	2376.32382	73.53699	-13851.13631
0.46324	79956.06758	2375.32382	73.44865	-13877.90090
0.46206	79882.70692	2374.32382	73.36066	-13904.59485
0.46089	79809.43391	2373.32382	73.27301	-13931.21850
0.45972	79736.24819	2372.32382	73.18572	-13957.77219
0.45855	79663.14943	2371.32382	73.09877	-13984.25625
0.45738	79590.13727	2370.32382	73.01216	-14010.67102
0.45622	79517.21137	2369.32382	72.92590	-14037.01683
0.45506	79444.37139	2368.32382	72.83998	-14063.29401
0.45390	79371.61700	2367.32382	72.75440	-14089.50290
0.45274	79298.94784	2366.32382	72.66916	-14115.64383
0.45158	79226.36358	2365.32382	72.58426	-14141.71712
0.45043	79153.86389	2364.32382	72.49970	-14167.72311
0.44928	79081.44841	2363.32382	72.41547	-14193.66213
0.44813	79009.11683	2362.32382	72.33158	-14219.53450
0.44698	78936.86881	2361.32382	72.24803	-14245.34055
0.44584	78864.70400	2360.32382	72.16481	-14271.08060
0.44469	78792.62208	2359.32382	72.08192	-14296.75498
0.44355	78720.62272	2358.32382	71.99936	-14322.36401
0.44241	78648.70558	2357.32382	71.91714	-14347.90802
0.44128	78576.87034	2356.32382	71.83524	-14373.38734
0.44014	78505.11666	2355.32382	71.75368	-14398.80227
0.43901	78433.44421	2354.32382	71.67244	-14424.15314
0.43788	78361.85268	2353.32382	71.59153	-14449.44027
0.43675	78290.34173	2352.32382	71.51095	-14474.66399
0.43562	78218.91105	2351.32382	71.43069	-14499.82461
0.43449	78147.56029	2350.32382	71.35076	-14524.92244
0.43337	78076.28914	2349.32382	71.27115	-14549.95781
0.43225	78005.09729	2348.32382	71.19186	-14574.93103
0.43113	77933.98439	2347.32382	71.11289	-14599.84241
0.43001	77862.95015	2346.32382	71.03425	-14624.69228
0.42890	77791.99422	2345.32382	70.95592	-14649.48095
0.42778	77721.11630	2344.32382	70.87792	-14674.20872
0.42667	77650.31607	2343.32382	70.80023	-14698.87592
0.42556	77579.59321	2342.32382	70.72286	-14723.48285
0.42445	77508.94740	2341.32382	70.64581	-14748.02983
0.42334	77438.37832	2340.32382	70.56908	-14772.51717
0.42224	77367.88567	2339.32382	70.49266	-14796.94518
0.42114	77297.46911	2338.32382	70.41655	-14821.31417
0.42004	77227.12836	2337.32382	70.34076	-14845.62444
0.41894	77156.86307	2336.32382	70.26528	-14869.87631
0.41784	77086.67296	2335.32382	70.19012	-14894.07009
0.41674	77016.55770	2334.32382	70.11526	-14918.20608
0.41565	76946.51698	2333.32382	70.04072	-14942.28458
0.41456	76876.55049	2332.32382	69.96649	-14966.30592
0.41347	76806.65793	2331.32382	69.89256	-14990.27039
0.41238	76736.83898	2330.32382	69.81895	-15014.17829
0.41129	76667.09334	2329.32382	69.74564	-15038.02994
0.41021	76597.42069	2328.32382	69.67265	-15061.82564
0.40912	76527.82074	2327.32382	69.59996	-15085.56568
0.40804	76458.29317	2326.32382	69.52757	-15109.25039
0.40696	76388.83767	2325.32382	69.45549	-15132.88005
0.40588	76319.45395	2324.32382	69.38372	-15156.45497
0.40480	76250.14170	2323.32382	69.31225	-15179.97546
0.40373	76180.90061	2322.32382	69.24109	-15203.44182
0.40265	76111.73037	2321.32382	69.17023	-15226.85434
0.40158	76042.63070	2320.32382	69.09967	-15250.21333
0.40051	75973.60128	2319.32382	69.02942	-15273.51909
0.39944	75904.64181	2318.32382	68.95947	-15296.77193
0.39837	75835.75199	2317.32382	68.88982	-15319.97213
0.39731	75766.93152	2316.32382	68.82047	-15343.12000
0.39624	75698.18010	2315.32382	68.75142	-15366.21585
0.39518	75629.49742	2314.32382	68.68267	-15389.25996
0.39412	75560.88320	2313.32382	68.61423	-15412.25265
0.39306	75492.33712	2312.32382	68.54608	-15435.19420
0.39200	75423.85889	2311.32382	68.47823	-15458.08492
0.39095	75355.44821	2310.32382	68.41068	-15480.92511
0.38989	75287.10479	2309.32382	68.34343	-15503.71505
0.38884	75218.82831	2308.32382	68.27647	-15526.45506
0.38778	75150.61850	2307.32382	68.20981	-15549.14543
0.38673	75082.47505	2306.32382	68.14345	-15571.78645
