Mole fraction of liquid	Heat per mole [J]	Temperature [K]
1.00000	1.18454E5	2869.43879
0.99998	1.18450E5	2869.34316
0.99682	1.18291E5	2868.34316
0.99368	1.18133E5	2867.34316
0.99054	1.17975E5	2866.34316
0.98742	1.17818E5	2865.34316
0.98432	1.17662E5	2864.34316
0.98122	1.17506E5	2863.34316
0.97814	1.17350E5	2862.34316
0.97507	1.17195E5	2861.34316
0.97201	1.17041E5	2860.34316
0.96896	1.16887E5	2859.34316
0.96593	1.16734E5	2858.34316
0.96291	1.16581E5	2857.34316
0.95990	1.16428E5	2856.34316
0.95690	1.16276E5	2855.34316
0.95391	1.16125E5	2854.34316
0.95094	1.15974E5	2853.34316
0.94798	1.15824E5	2852.34316
0.94503	1.15674E5	2851.34316
0.94209	1.15524E5	2850.34316
0.93916	1.15375E5	2849.34316
0.93624	1.15227E5	2848.34316
0.93334	1.15079E5	2847.34316
0.93045	1.14931E5	2846.34316
0.92756	1.14784E5	2845.34316
0.92469	1.14637E5	2844.34316
0.92184	1.14491E5	2843.34316
0.91899	1.14346E5	2842.34316
0.91615	1.14200E5	2841.34316
0.91332	1.14056E5	2840.34316
0.91051	1.13911E5	2839.34316
0.90771	1.13767E5	2838.34316
0.90491	1.13624E5	2837.34316
0.90213	1.13481E5	2836.34316
0.89936	1.13339E5	2835.34316
0.89660	1.13197E5	2834.34316
0.89385	1.13055E5	2833.34316
0.89111	1.12914E5	2832.34316
0.88838	1.12773E5	2831.34316
0.88566	1.12633E5	2830.34316
0.88296	1.12493E5	2829.34316
0.88026	1.12353E5	2828.34316
0.87757	1.12214E5	2827.34316
0.87489	1.12076E5	2826.34316
0.87223	1.11937E5	2825.34316
0.86957	1.11800E5	2824.34316
0.86692	1.11662E5	2823.34316
0.86429	1.11525E5	2822.34316
0.86166	1.11389E5	2821.34316
0.85905	1.11253E5	2820.34316
0.85644	1.11117E5	2819.34316
0.85384	1.10982E5	2818.34316
0.85126	1.10847E5	2817.34316
0.84868	1.10713E5	2816.34316
0.84611	1.10578E5	2815.34316
0.84356	1.10445E5	2814.34316
0.84101	1.10312E5	2813.34316
0.83847	1.10179E5	2812.34316
0.83594	1.10046E5	2811.34316
0.83342	1.09914E5	2810.34316
0.83091	1.09782E5	2809.34316
0.82841	1.09651E5	2808.34316
0.82592	1.09520E5	2807.34316
0.82344	1.09389E5	2806.34316
0.82097	1.09259E5	2805.34316
0.81850	1.09129E5	2804.34316
0.81605	1.09000E5	2803.34316
0.81360	1.08871E5	2802.34316
0.81117	1.08742E5	2801.34316
0.80874	1.08614E5	2800.34316
0.80632	1.08486E5	2799.34316
0.80391	1.08359E5	2798.34316
0.80151	1.08231E5	2797.34316
0.79912	1.08104E5	2796.34316
0.79674	1.07978E5	2795.34316
0.79436	1.07852E5	2794.34316
0.79200	1.07726E5	2793.34316
0.78964	1.07601E5	2792.34316
0.78729	1.07476E5	2791.34316
0.78496	1.07351E5	2790.34316
0.78262	1.07227E5	2789.34316
0.78030	1.07103E5	2788.34316
0.77799	1.06979E5	2787.34316
0.77568	1.06856E5	2786.34316
0.77339	1.06733E5	2785.34316
0.77110	1.06610E5	2784.34316
0.76882	1.06488E5	2783.34316
0.76654	1.06366E5	2782.34316
0.76428	1.06244E5	2781.34316
0.76202	1.06123E5	2780.34316
0.75978	1.06002E5	2779.34316
0.75754	1.05881E5	2778.34316
0.75530	1.05761E5	2777.34316
0.75308	1.05641E5	2776.34316
0.75087	1.05521E5	2775.34316
0.74866	1.05402E5	2774.34316
0.74646	1.05283E5	2773.34316
0.74427	1.05164E5	2772.34316
0.74208	1.05046E5	2771.34316
0.73990	1.04928E5	2770.34316
0.73774	1.04810E5	2769.34316
0.73558	1.04693E5	2768.34316
0.73342	1.04576E5	2767.34316
0.73128	1.04459E5	2766.34316
0.72914	1.04342E5	2765.34316
0.72701	1.04226E5	2764.34316
0.72488	1.04110E5	2763.34316
0.72277	1.03995E5	2762.34316
0.72066	1.03879E5	2761.34316
0.71856	1.03765E5	2760.34316
0.71647	1.03650E5	2759.34316
0.71438	1.03536E5	2758.34316
0.71230	1.03421E5	2757.34316
0.71023	1.03308E5	2756.34316
0.70817	1.03194E5	2755.34316
0.70611	1.03081E5	2754.34316
0.70406	1.02968E5	2753.34316
0.70202	1.02856E5	2752.34316
0.69998	1.02743E5	2751.34316
0.69795	1.02631E5	2750.34316
0.69593	1.02520E5	2749.34316
0.69391	1.02408E5	2748.34316
0.69191	1.02297E5	2747.34316
0.68991	1.02186E5	2746.34316
0.68791	1.02075E5	2745.34316
0.68593	1.01965E5	2744.34316
0.68395	1.01855E5	2743.34316
0.68197	1.01745E5	2742.34316
0.68001	1.01636E5	2741.34316
0.67805	1.01527E5	2740.34316
0.67609	1.01418E5	2739.34316
0.67415	1.01309E5	2738.34316
0.67221	1.01201E5	2737.34316
0.67027	1.01092E5	2736.34316
0.66835	1.00985E5	2735.34316
0.66643	1.00877E5	2734.34316
0.66451	1.00770E5	2733.34316
0.66260	1.00663E5	2732.34316
0.66070	1.00556E5	2731.34316
0.65881	1.00449E5	2730.34316
0.65692	1.00343E5	2729.34316
0.65504	1.00237E5	2728.34316
0.65316	1.00131E5	2727.34316
0.65130	1.00025E5	2726.34316
0.64943	99920.18723	2725.34316
0.64758	99815.16301	2724.34316
0.64573	99710.39044	2723.34316
0.64388	99605.86830	2722.34316
0.64204	99501.59540	2721.34316
0.64021	99397.57054	2720.34316
0.63839	99293.79252	2719.34316
0.63657	99190.26016	2718.34316
0.63475	99086.97229	2717.34316
0.63295	98983.92772	2716.34316
0.63114	98881.12531	2715.34316
0.62935	98778.56388	2714.34316
0.62756	98676.24229	2713.34316
0.62577	98574.15940	2712.34316
0.62400	98472.31406	2711.34316
0.62222	98370.70514	2710.34316
0.62046	98269.33153	2709.34316
0.61870	98168.19210	2708.34316
0.61694	98067.28574	2707.34316
0.61519	97966.61134	2706.34316
0.61345	97866.16781	2705.34316
0.61171	97765.95405	2704.34316
0.60998	97665.96897	2703.34316
0.60826	97566.21149	2702.34316
0.60653	97466.68054	2701.34316
0.60482	97367.37505	2700.34316
0.60311	97268.29395	2699.34316
0.60141	97169.43619	2698.34316
0.59971	97070.80072	2697.34316
0.59801	96972.38649	2696.34316
0.59633	96874.19247	2695.34316
0.59465	96776.21762	2694.34316
0.59297	96678.46091	2693.34316
0.59130	96580.92131	2692.34316
0.58963	96483.59783	2691.34316
0.58797	96386.48944	2690.34316
0.58632	96289.59513	2689.34316
0.58467	96192.91392	2688.34316
0.58302	96096.44480	2687.34316
0.58138	96000.18679	2686.34316
0.57975	95904.13891	2685.34316
0.57812	95808.30017	2684.34316
0.57649	95712.66961	2683.34316
0.57487	95617.24626	2682.34316
0.57326	95522.02916	2681.34316
0.57165	95427.01736	2680.34316
0.57005	95332.20989	2679.34316
0.56845	95237.60582	2678.34316
0.56686	95143.20421	2677.34316
0.56527	95049.00412	2676.34316
0.56369	94955.00463	2675.34316
0.56211	94861.20480	2674.34316
0.56053	94767.60372	2673.34316
0.55896	94674.20047	2672.34316
0.55740	94580.99415	2671.34316
0.55584	94487.98385	2670.34316
0.55429	94395.16866	2669.34316
0.55274	94302.54770	2668.34316
0.55119	94210.12008	2667.34316
0.54965	94117.88491	2666.34316
0.54812	94025.84131	2665.34316
0.54659	93933.98840	2664.34316
0.54506	93842.32531	2663.34316
0.54354	93750.85119	2662.34316
0.54203	93659.56516	2661.34316
0.54052	93568.46637	2660.34316
0.53901	93477.55396	2659.34316
0.53751	93386.82710	2658.34316
0.53601	93296.28494	2657.34316
0.53452	93205.92664	2656.34316
0.53303	93115.75136	2655.34316
0.53155	93025.75828	2654.34316
0.53007	92935.94657	2653.34316
0.52859	92846.31541	2652.34316
0.52712	92756.86398	2651.34316
0.52565	92667.59148	2650.34316
0.52419	92578.49710	2649.34316
0.52274	92489.58003	2648.34316
0.52128	92400.83947	2647.34316
0.51984	92312.27464	2646.34316
0.51839	92223.88473	2645.34316
0.51695	92135.66897	2644.34316
0.51552	92047.62657	2643.34316
0.51409	91959.75675	2642.34316
0.51266	91872.05875	2641.34316
0.51124	91784.53178	2640.34316
0.50982	91697.17509	2639.34316
0.50840	91609.98792	2638.34316
0.50699	91522.96950	2637.34316
0.50559	91436.11909	2636.34316
0.50419	91349.43593	2635.34316
0.50279	91262.91928	2634.34316
0.50140	91176.56840	2633.34316
0.50001	91090.38254	2632.34316
0.49862	91004.36099	2631.34316
0.49724	90918.50299	2630.34316
0.49587	90832.80784	2629.34316
0.49449	90747.27481	2628.34316
0.49312	90661.90318	2627.34316
0.49176	90576.69222	2626.34316
0.49040	90491.64125	2625.34316
0.48904	90406.74954	2624.34316
0.48769	90322.01639	2623.34316
0.48634	90237.44110	2622.34316
0.48500	90153.02298	2621.34316
0.48365	90068.76133	2620.34316
0.48232	89984.65547	2619.34316
0.48098	89900.70470	2618.34316
0.47965	89816.90835	2617.34316
0.47833	89733.26574	2616.34316
0.47701	89649.77619	2615.34316
0.47569	89566.43903	2614.34316
0.47438	89483.25359	2613.34316
0.47306	89400.21921	2612.34316
0.47176	89317.33523	2611.34316
0.47045	89234.60098	2610.34316
0.46916	89152.01582	2609.34316
0.46786	89069.57909	2608.34316
0.46657	88987.29015	2607.34316
0.46528	88905.14835	2606.34316
0.46400	88823.15304	2605.34316
0.46271	88741.30360	2604.34316
0.46144	88659.59938	2603.34316
0.46016	88578.03976	2602.34316
0.45889	88496.62411	2601.34316
0.45763	88415.35179	2600.34316
0.45636	88334.22220	2599.34316
0.45510	88253.23470	2598.34316
0.45385	88172.38869	2597.34316
0.45260	88091.68355	2596.34316
0.45135	88011.11867	2595.34316
0.45010	87930.69345	2594.34316
0.44886	87850.40728	2593.34316
0.44762	87770.25956	2592.34316
0.44639	87690.24970	2591.34316
0.44515	87610.37710	2590.34316
0.44393	87530.64116	2589.34316
0.44270	87451.04131	2588.34316
0.44148	87371.57694	2587.34316
0.44026	87292.24749	2586.34316
0.43905	87213.05238	2585.34316
0.43784	87133.99101	2584.34316
0.43663	87055.06283	2583.34316
0.43542	86976.26726	2582.34316
0.43422	86897.60373	2581.34316
0.43302	86819.07168	2580.34316
0.43183	86740.67053	2579.34316
0.43064	86662.39975	2578.34316
0.42945	86584.25875	2577.34316
0.42826	86506.24700	2576.34316
0.42708	86428.36394	2575.34316
0.42590	86350.60902	2574.34316
0.42472	86272.98170	2573.34316
0.42355	86195.48142	2572.34316
0.42238	86118.10765	2571.34316
0.42122	86040.85986	2570.34316
0.42005	85963.73750	2569.34316
0.41889	85886.74004	2568.34316
0.41774	85809.86696	2567.34316
0.41658	85733.11772	2566.34316
0.41543	85656.49180	2565.34316
0.41428	85579.98867	2564.34316
0.41314	85503.60781	2563.34316
0.41200	85427.34872	2562.34316
0.41086	85351.21087	2561.34316
0.40972	85275.19374	2560.34316
0.40859	85199.29683	2559.34316
0.40746	85123.51964	2558.34316
0.40633	85047.86165	2557.34316
0.40521	84972.32236	2556.34316
0.40409	84896.90127	2555.34316
0.40297	84821.59789	2554.34316
0.40185	84746.41171	2553.34316
0.40074	84671.34224	2552.34316
0.39963	84596.38900	2551.34316
0.39853	84521.55149	2550.34316
0.39742	84446.82923	2549.34316
0.39632	84372.22172	2548.34316
0.39522	84297.72850	2547.34316
0.39413	84223.34908	2546.34316
0.39304	84149.08298	2545.34316
0.39195	84074.92973	2544.34316
0.39086	84000.88886	2543.34316
0.38978	83926.95989	2542.34316
0.38869	83853.14235	2541.34316
0.38762	83779.43578	2540.34316
0.38654	83705.83972	2539.34316
0.38547	83632.35370	2538.34316
0.38440	83558.97726	2537.34316
0.38333	83485.70994	2536.34316
0.38226	83412.55130	2535.34316
0.38120	83339.50087	2534.34316
0.38014	83266.55820	2533.34316
0.37908	83193.72285	2532.34316
0.37803	83120.99437	2531.34316
0.37698	83048.37230	2530.34316
0.37593	82975.85622	2529.34316
0.37488	82903.44567	2528.34316
0.37384	82831.14022	2527.34316
0.37280	82758.93944	2526.34316
0.37176	82686.84287	2525.34316
0.37072	82614.85010	2524.34316
0.36969	82542.96069	2523.34316
0.36866	82471.17422	2522.34316
0.36763	82399.49024	2521.34316
0.36660	82327.90835	2520.34316
0.36558	82256.42811	2519.34316
0.36456	82185.04910	2518.34316
0.36354	82113.77091	2517.34316
0.36252	82042.59311	2516.34316
0.36151	81971.51529	2515.34316
0.36050	81900.53704	2514.34316
0.35949	81829.65794	2513.34316
0.35848	81758.87758	2512.34316
0.35748	81688.19555	2511.34316
0.35648	81617.61146	2510.34316
0.35548	81547.12488	2509.34316
0.35448	81476.73542	2508.34316
0.35348	81406.44268	2507.34316
0.35249	81336.24626	2506.34316
0.35150	81266.14575	2505.34316
0.35051	81196.14077	2504.34316
0.34953	81126.23091	2503.34316
0.34855	81056.41579	2502.34316
0.34757	80986.69501	2501.34316
0.34659	80917.06818	2500.34316
0.34561	80847.53492	2499.34316
0.34464	80778.09484	2498.34316
0.34367	80708.74755	2497.34316
0.34270	80639.49268	2496.34316
0.34173	80570.32983	2495.34316
0.34076	80501.25864	2494.34316
0.33980	80432.27872	2493.34316
0.33884	80363.38969	2492.34316
0.33788	80294.59119	2491.34316
0.33693	80225.88283	2490.34316
0.33597	80157.26425	2489.34316
0.33502	80088.73507	2488.34316
0.33407	80020.29493	2487.34316
0.33312	79951.94346	2486.34316
0.33218	79883.68029	2485.34316
0.33124	79815.50507	2484.34316
0.33030	79747.41742	2483.34316
0.32936	79679.41698	2482.34316
0.32842	79611.50340	2481.34316
0.32748	79543.67632	2480.34316
0.32655	79475.93538	2479.34316
0.32562	79408.28022	2478.34316
0.32469	79340.71050	2477.34316
0.32377	79273.22585	2476.34316
0.32284	79205.82593	2475.34316
0.32192	79138.51039	2474.34316
0.32100	79071.27888	2473.34316
0.32008	79004.13104	2472.34316
0.31916	78937.06655	2471.34316
0.31825	78870.08505	2470.34316
0.31734	78803.18619	2469.34316
0.31643	78736.36965	2468.34316
0.31552	78669.63507	2467.34316
0.31461	78602.98212	2466.34316
0.31371	78536.41046	2465.34316
0.31280	78469.91975	2464.34316
0.31190	78403.50966	2463.34316
0.31100	78337.17986	2462.34316
0.31011	78270.93001	2461.34316
0.30921	78204.75978	2460.34316
0.30832	78138.66884	2459.34316
0.30743	78072.65686	2458.34316
0.30654	78006.72352	2457.34316
0.30565	77940.86848	2456.34316
0.30476	77875.09143	2455.34316
0.30388	77809.39203	2454.34316
0.30300	77743.76997	2453.34316
0.30212	77678.22492	2452.34316
0.30124	77612.75657	2451.34316
0.30036	77547.36459	2450.34316
0.29949	77482.04866	2449.34316
0.29861	77416.80847	2448.34316
0.29774	77351.64370	2447.34316
0.29687	77286.55404	2446.34316
0.29600	77221.53916	2445.34316
0.29514	77156.59877	2444.34316
0.29427	77091.73255	2443.34316
0.29341	77026.94018	2442.34316
0.29255	76962.22136	2441.34316
0.29169	76897.57577	2440.34316
0.29083	76833.00312	2439.34316
0.28997	76768.50309	2438.34316
0.28912	76704.07538	2437.34316
0.28827	76639.71968	2436.34316
0.28742	76575.43569	2435.34316
0.28657	76511.22311	2434.34316
0.28572	76447.08163	2433.34316
0.28487	76383.01096	2432.34316
0.28403	76319.01079	2431.34316
0.28319	76255.08082	2430.34316
0.28234	76191.22077	2429.34316
0.28150	76127.43032	2428.34316
0.28067	76063.70918	2427.34316
0.27983	76000.05707	2426.34316
0.27899	75936.47368	2425.34316
0.27816	75872.95871	2424.34316
0.27733	75809.51189	2423.34316
0.27650	75746.13291	2422.34316
0.27567	75682.82148	2421.34316
0.27484	75619.57732	2420.34316
0.27402	75556.40013	2419.34316
0.27319	75493.28962	2418.34316
0.27237	75430.24551	2417.34316
0.27155	75367.26751	2416.34316
0.27073	75304.35534	2415.34316
0.26991	75241.50870	2414.34316
0.26909	75178.72731	2413.34316
0.26828	75116.01089	2412.34316
0.26746	75053.35916	2411.34316
0.26665	74990.77183	2410.34316
0.26584	74928.24861	2409.34316
0.26503	74865.78924	2408.34316
0.26422	74803.39342	2407.34316
0.26341	74741.06087	2406.34316
0.26261	74678.79132	2405.34316
0.26180	74616.58449	2404.34316
0.26100	74554.44010	2403.34316
0.26020	74492.35787	2402.34316
0.25940	74430.33752	2401.34316
0.25860	74368.37878	2400.34316
0.25780	74306.48137	2399.34316
0.25700	74244.64502	2398.34316
0.25621	74182.86945	2397.34316
0.25542	74121.15438	2396.34316
0.25462	74059.49954	2395.34316
0.25383	73997.90466	2394.34316
0.25304	73936.36946	2393.34316
0.25225	73874.89368	2392.34316
0.25147	73813.47703	2391.34316
0.25068	73752.11925	2390.34316
0.24990	73690.82007	2389.34316
0.24911	73629.57921	2388.34316
0.24833	73568.39641	2387.34316
0.24755	73507.27139	2386.34316
0.24677	73446.20388	2385.34316
0.24599	73385.19362	2384.34316
0.24521	73324.24034	2383.34316
0.24443	73263.34375	2382.34316
0.24366	73202.50361	2381.34316
0.24289	73141.71963	2380.34316
0.24211	73080.99156	2379.34316
0.24134	73020.31911	2378.34316
0.24057	72959.70204	2377.34316
0.23980	72899.14005	2376.34316
0.23903	72838.63290	2375.34316
0.23826	72778.18031	2374.34316
0.23750	72717.78201	2373.34316
0.23673	72657.43775	2372.34316
0.23597	72597.14724	2371.34316
0.23520	72536.91023	2370.34316
0.23444	72476.72644	2369.34316
0.23368	72416.59562	2368.34316
0.23292	72356.51749	2367.34316
0.23216	72296.49179	2366.34316
0.23140	72236.51825	2365.34316
0.23065	72176.59661	2364.34316
0.22989	72116.72659	2363.34316
0.22914	72056.90793	2362.34316
0.22838	71997.14037	2361.34316
0.22763	71937.42364	2360.34316
0.22688	71877.75747	2359.34316
0.22613	71818.14159	2358.34316
0.22537	71758.57574	2357.34316
0.22463	71699.05964	2356.34316
0.22388	71639.59304	2355.34316
0.22313	71580.17565	2354.34316
0.22238	71520.80722	2353.34316
0.22164	71461.48748	2352.34316
0.22089	71402.21616	2351.34316
0.22015	71342.99298	2350.34316
0.21940	71283.81767	2349.34316
0.21866	71224.68998	2348.34316
0.21792	71165.60962	2347.34316
0.21718	71106.57633	2346.34316
0.21644	71047.58983	2345.34316
0.21570	70988.64985	2344.34316
0.21496	70929.75613	2343.34316
0.21422	70870.90838	2342.34316
0.21349	70812.10633	2341.34316
0.21275	70753.34971	2340.34316
0.21202	70694.63825	2339.34316
0.21128	70635.97166	2338.34316
0.21055	70577.34967	2337.34316
0.20981	70518.77201	2336.34316
0.20908	70460.23840	2335.34316
0.20835	70401.74855	2334.34316
0.20762	70343.30219	2333.34316
0.20689	70284.89903	2332.34316
0.20616	70226.53881	2331.34316
0.20543	70168.22122	2330.34316
0.20470	70109.94599	2329.34316
0.20397	70051.71284	2328.34316
0.20325	69993.52148	2327.34316
0.20252	69935.37162	2326.34316
0.20179	69877.26297	2325.34316
0.20107	69819.19525	2324.34316
0.20034	69761.16816	2323.34316
0.19962	69703.18141	2322.34316
0.19889	69645.23472	2321.34316
0.19817	69587.32777	2320.34316
0.19745	69529.46029	2319.34316
0.19673	69471.63196	2318.34316
0.19600	69413.84250	2317.34316
0.19528	69356.09159	2316.34316
0.19456	69298.37894	2315.34316
0.19384	69240.70425	2314.34316
0.19312	69183.06720	2313.34316
0.19240	69125.46750	2312.34316
0.19168	69067.90482	2311.34316
0.19096	69010.37886	2310.34316
0.19025	68952.88930	2309.34316
0.18953	68895.43583	2308.34316
0.18881	68838.01813	2307.34316
0.18809	68780.63588	2306.34316
0.18737	68723.28876	2305.34316
0.18666	68665.97644	2304.34316
0.18594	68608.69859	2303.34316
0.18523	68551.45489	2302.34316
0.18451	68494.24500	2301.34316
0.18379	68437.06859	2300.34316
0.18308	68379.92532	2299.34316
0.18236	68322.81484	2298.34316
0.18165	68265.73682	2297.34316
0.18093	68208.69091	2296.34316
0.18022	68151.67676	2295.34316
0.17950	68094.69401	2294.34316
0.17879	68037.74231	2293.34316
0.17808	67980.82130	2292.34316
0.17736	67923.93062	2291.34316
0.17665	67867.06989	2290.34316
0.17593	67810.23875	2289.34316
0.17522	67753.43683	2288.34316
0.17451	67696.66374	2287.34316
0.17379	67639.91911	2286.34316
0.17308	67583.20255	2285.34316
0.17236	67526.51366	2284.34316
0.17165	67469.85205	2283.34316
0.17094	67413.21732	2282.34316
0.17022	67356.60908	2281.34316
0.16951	67300.02689	2280.34316
0.16879	67243.47037	2279.34316
0.16808	67186.93907	2278.34316
0.16736	67130.43259	2277.34316
0.16665	67073.95048	2276.34316
0.16593	67017.49232	2275.34316
0.16522	66961.05766	2274.34316
0.16450	66904.64605	2273.34316
0.16379	66848.25704	2272.34316
0.16307	66791.89017	2271.34316
0.16236	66735.54497	2270.34316
0.16164	66679.22098	2269.34316
0.16092	66622.91770	2268.34316
0.16021	66566.63465	2267.34316
0.15949	66510.37134	2266.34316
0.15877	66454.12727	2265.34316
0.15805	66397.90191	2264.34316
0.15733	66341.69476	2263.34316
0.15661	66285.50529	2262.34316
0.15589	66229.33295	2261.34316
0.15517	66173.17722	2260.34316
0.15445	66117.03752	2259.34316
0.15373	66060.91331	2258.34316
0.15301	66004.80399	2257.34316
0.15229	65948.70900	2256.34316
0.15156	65892.62774	2255.34316
0.15084	65836.55960	2254.34316
0.15011	65780.50396	2253.34316
0.14939	65724.46020	2252.34316
0.14866	65668.42768	2251.34316
0.14793	65612.40575	2250.34316
0.14721	65556.39373	2249.34316
0.14648	65500.39096	2248.34316
0.14575	65444.39673	2247.34316
0.14502	65388.41035	2246.34316
0.14428	65332.43109	2245.34316
0.14355	65276.45821	2244.34316
0.14282	65220.49096	2243.34316
0.14208	65164.52858	2242.34316
0.14134	65108.57027	2241.34316
0.14061	65052.61524	2240.34316
0.13987	64996.66266	2239.34316
0.13913	64940.71169	2238.34316
0.13839	64884.76147	2237.34316
0.13764	64828.81112	2236.34316
0.13690	64772.85974	2235.34316
0.13615	64716.90640	2234.34316
0.13541	64660.95016	2233.34316
0.13466	64604.99004	2232.34316
0.13391	64549.02505	2231.34316
0.13316	64493.05418	2230.34316
0.13240	64437.07636	2229.34316
0.13165	64381.09054	2228.34316
0.13089	64325.09559	2227.34316
0.13013	64269.09039	2226.34316
0.12937	64213.07377	2225.34316
0.12861	64157.04454	2224.34316
0.12784	64101.00146	2223.34316
0.12707	64044.94325	2222.34316
0.12630	63988.86863	2221.34316
0.12553	63932.77623	2220.34316
0.12476	63876.66468	2219.34316
