Mole fraction of liquid	Heat per mole [J]	Temperature [K]
1.00000	1.21062E5	2889.29852
0.99998	1.21057E5	2889.20289
0.99664	1.20890E5	2888.20289
0.99331	1.20724E5	2887.20289
0.99000	1.20559E5	2886.20289
0.98670	1.20394E5	2885.20289
0.98342	1.20229E5	2884.20289
0.98015	1.20065E5	2883.20289
0.97689	1.19902E5	2882.20289
0.97365	1.19739E5	2881.20289
0.97042	1.19577E5	2880.20289
0.96720	1.19416E5	2879.20289
0.96400	1.19255E5	2878.20289
0.96081	1.19094E5	2877.20289
0.95763	1.18934E5	2876.20289
0.95447	1.18775E5	2875.20289
0.95132	1.18616E5	2874.20289
0.94818	1.18458E5	2873.20289
0.94506	1.18300E5	2872.20289
0.94195	1.18143E5	2871.20289
0.93885	1.17986E5	2870.20289
0.93577	1.17830E5	2869.20289
0.93269	1.17674E5	2868.20289
0.92963	1.17519E5	2867.20289
0.92659	1.17364E5	2866.20289
0.92355	1.17210E5	2865.20289
0.92053	1.17057E5	2864.20289
0.91752	1.16903E5	2863.20289
0.91452	1.16751E5	2862.20289
0.91154	1.16599E5	2861.20289
0.90857	1.16447E5	2860.20289
0.90560	1.16296E5	2859.20289
0.90266	1.16145E5	2858.20289
0.89972	1.15995E5	2857.20289
0.89679	1.15846E5	2856.20289
0.89388	1.15697E5	2855.20289
0.89098	1.15548E5	2854.20289
0.88809	1.15400E5	2853.20289
0.88521	1.15252E5	2852.20289
0.88235	1.15105E5	2851.20289
0.87949	1.14958E5	2850.20289
0.87665	1.14812E5	2849.20289
0.87382	1.14666E5	2848.20289
0.87100	1.14521E5	2847.20289
0.86819	1.14376E5	2846.20289
0.86539	1.14231E5	2845.20289
0.86261	1.14087E5	2844.20289
0.85983	1.13944E5	2843.20289
0.85707	1.13801E5	2842.20289
0.85431	1.13658E5	2841.20289
0.85157	1.13516E5	2840.20289
0.84884	1.13374E5	2839.20289
0.84612	1.13233E5	2838.20289
0.84341	1.13092E5	2837.20289
0.84071	1.12952E5	2836.20289
0.83802	1.12812E5	2835.20289
0.83534	1.12672E5	2834.20289
0.83268	1.12533E5	2833.20289
0.83002	1.12394E5	2832.20289
0.82737	1.12256E5	2831.20289
0.82474	1.12118E5	2830.20289
0.82211	1.11981E5	2829.20289
0.81950	1.11844E5	2828.20289
0.81689	1.11707E5	2827.20289
0.81430	1.11571E5	2826.20289
0.81171	1.11435E5	2825.20289
0.80914	1.11300E5	2824.20289
0.80657	1.11165E5	2823.20289
0.80402	1.11030E5	2822.20289
0.80147	1.10896E5	2821.20289
0.79894	1.10762E5	2820.20289
0.79641	1.10629E5	2819.20289
0.79390	1.10496E5	2818.20289
0.79139	1.10364E5	2817.20289
0.78890	1.10231E5	2816.20289
0.78641	1.10100E5	2815.20289
0.78393	1.09968E5	2814.20289
0.78147	1.09837E5	2813.20289
0.77901	1.09707E5	2812.20289
0.77656	1.09576E5	2811.20289
0.77412	1.09447E5	2810.20289
0.77169	1.09317E5	2809.20289
0.76927	1.09188E5	2808.20289
0.76686	1.09059E5	2807.20289
0.76446	1.08931E5	2806.20289
0.76206	1.08803E5	2805.20289
0.75968	1.08675E5	2804.20289
0.75730	1.08548E5	2803.20289
0.75494	1.08421E5	2802.20289
0.75258	1.08294E5	2801.20289
0.75023	1.08168E5	2800.20289
0.74789	1.08042E5	2799.20289
0.74556	1.07917E5	2798.20289
0.74324	1.07792E5	2797.20289
0.74093	1.07667E5	2796.20289
0.73862	1.07543E5	2795.20289
0.73633	1.07419E5	2794.20289
0.73404	1.07295E5	2793.20289
0.73176	1.07171E5	2792.20289
0.72949	1.07048E5	2791.20289
0.72723	1.06926E5	2790.20289
0.72498	1.06803E5	2789.20289
0.72273	1.06681E5	2788.20289
0.72050	1.06560E5	2787.20289
0.71827	1.06438E5	2786.20289
0.71605	1.06317E5	2785.20289
0.71384	1.06197E5	2784.20289
0.71163	1.06076E5	2783.20289
0.70944	1.05956E5	2782.20289
0.70725	1.05836E5	2781.20289
0.70507	1.05717E5	2780.20289
0.70290	1.05598E5	2779.20289
0.70074	1.05479E5	2778.20289
0.69858	1.05361E5	2777.20289
0.69643	1.05243E5	2776.20289
0.69429	1.05125E5	2775.20289
0.69216	1.05007E5	2774.20289
0.69004	1.04890E5	2773.20289
0.68792	1.04773E5	2772.20289
0.68581	1.04657E5	2771.20289
0.68371	1.04541E5	2770.20289
0.68162	1.04425E5	2769.20289
0.67953	1.04309E5	2768.20289
0.67745	1.04194E5	2767.20289
0.67538	1.04079E5	2766.20289
0.67332	1.03964E5	2765.20289
0.67126	1.03849E5	2764.20289
0.66921	1.03735E5	2763.20289
0.66717	1.03621E5	2762.20289
0.66514	1.03508E5	2761.20289
0.66311	1.03395E5	2760.20289
0.66109	1.03282E5	2759.20289
0.65908	1.03169E5	2758.20289
0.65707	1.03057E5	2757.20289
0.65507	1.02944E5	2756.20289
0.65308	1.02833E5	2755.20289
0.65110	1.02721E5	2754.20289
0.64912	1.02610E5	2753.20289
0.64715	1.02499E5	2752.20289
0.64519	1.02388E5	2751.20289
0.64323	1.02278E5	2750.20289
0.64128	1.02167E5	2749.20289
0.63934	1.02058E5	2748.20289
0.63741	1.01948E5	2747.20289
0.63548	1.01839E5	2746.20289
0.63356	1.01730E5	2745.20289
0.63164	1.01621E5	2744.20289
0.62973	1.01512E5	2743.20289
0.62783	1.01404E5	2742.20289
0.62594	1.01296E5	2741.20289
0.62405	1.01188E5	2740.20289
0.62217	1.01081E5	2739.20289
0.62029	1.00973E5	2738.20289
0.61842	1.00867E5	2737.20289
0.61656	1.00760E5	2736.20289
0.61470	1.00653E5	2735.20289
0.61285	1.00547E5	2734.20289
0.61101	1.00441E5	2733.20289
0.60917	1.00336E5	2732.20289
0.60734	1.00230E5	2731.20289
0.60552	1.00125E5	2730.20289
0.60370	1.00020E5	2729.20289
0.60189	99915.30383	2728.20289
0.60008	99810.86516	2727.20289
0.59829	99706.67194	2726.20289
0.59649	99602.72298	2725.20289
0.59471	99499.01706	2724.20289
0.59292	99395.55299	2723.20289
0.59115	99292.32958	2722.20289
0.58938	99189.34563	2721.20289
0.58762	99086.59997	2720.20289
0.58586	98984.09143	2719.20289
0.58411	98881.81885	2718.20289
0.58236	98779.78106	2717.20289
0.58063	98677.97691	2716.20289
0.57889	98576.40527	2715.20289
0.57717	98475.06498	2714.20289
0.57544	98373.95493	2713.20289
0.57373	98273.07398	2712.20289
0.57202	98172.42102	2711.20289
0.57031	98071.99494	2710.20289
0.56861	97971.79462	2709.20289
0.56692	97871.81897	2708.20289
0.56523	97772.06691	2707.20289
0.56355	97672.53733	2706.20289
0.56188	97573.22916	2705.20289
0.56021	97474.14133	2704.20289
0.55854	97375.27277	2703.20289
0.55688	97276.62241	2702.20289
0.55523	97178.18921	2701.20289
0.55358	97079.97210	2700.20289
0.55193	96981.97006	2699.20289
0.55030	96884.18202	2698.20289
0.54866	96786.60698	2697.20289
0.54704	96689.24390	2696.20289
0.54542	96592.09175	2695.20289
0.54380	96495.14953	2694.20289
0.54219	96398.41623	2693.20289
0.54058	96301.89084	2692.20289
0.53898	96205.57237	2691.20289
0.53739	96109.45981	2690.20289
0.53580	96013.55220	2689.20289
0.53421	95917.84854	2688.20289
0.53263	95822.34786	2687.20289
0.53106	95727.04920	2686.20289
0.52949	95631.95158	2685.20289
0.52792	95537.05405	2684.20289
0.52636	95442.35565	2683.20289
0.52481	95347.85544	2682.20289
0.52326	95253.55247	2681.20289
0.52171	95159.44580	2680.20289
0.52017	95065.53451	2679.20289
0.51864	94971.81767	2678.20289
0.51711	94878.29434	2677.20289
0.51558	94784.96362	2676.20289
0.51406	94691.82460	2675.20289
0.51255	94598.87636	2674.20289
0.51104	94506.11801	2673.20289
0.50953	94413.54865	2672.20289
0.50803	94321.16738	2671.20289
0.50654	94228.97332	2670.20289
0.50504	94136.96558	2669.20289
0.50356	94045.14330	2668.20289
0.50208	93953.50559	2667.20289
0.50060	93862.05159	2666.20289
0.49913	93770.78044	2665.20289
0.49766	93679.69127	2664.20289
0.49619	93588.78324	2663.20289
0.49474	93498.05550	2662.20289
0.49328	93407.50719	2661.20289
0.49183	93317.13748	2660.20289
0.49039	93226.94554	2659.20289
0.48894	93136.93054	2658.20289
0.48751	93047.09165	2657.20289
0.48608	92957.42804	2656.20289
0.48465	92867.93890	2655.20289
0.48323	92778.62342	2654.20289
0.48181	92689.48079	2653.20289
0.48039	92600.51021	2652.20289
0.47898	92511.71087	2651.20289
0.47758	92423.08198	2650.20289
0.47618	92334.62275	2649.20289
0.47478	92246.33239	2648.20289
0.47339	92158.21012	2647.20289
0.47200	92070.25516	2646.20289
0.47061	91982.46674	2645.20289
0.46923	91894.84409	2644.20289
0.46786	91807.38643	2643.20289
0.46649	91720.09302	2642.20289
0.46512	91632.96309	2641.20289
0.46376	91545.99588	2640.20289
0.46240	91459.19065	2639.20289
0.46104	91372.54665	2638.20289
0.45969	91286.06315	2637.20289
0.45834	91199.73939	2636.20289
0.45700	91113.57465	2635.20289
0.45566	91027.56820	2634.20289
0.45433	90941.71931	2633.20289
0.45300	90856.02726	2632.20289
0.45167	90770.49132	2631.20289
0.45035	90685.11080	2630.20289
0.44903	90599.88496	2629.20289
0.44771	90514.81311	2628.20289
0.44640	90429.89455	2627.20289
0.44509	90345.12856	2626.20289
0.44379	90260.51447	2625.20289
0.44249	90176.05156	2624.20289
0.44119	90091.73916	2623.20289
0.43990	90007.57658	2622.20289
0.43861	89923.56313	2621.20289
0.43733	89839.69814	2620.20289
0.43605	89755.98093	2619.20289
0.43477	89672.41084	2618.20289
0.43350	89588.98718	2617.20289
0.43223	89505.70931	2616.20289
0.43096	89422.57655	2615.20289
0.42970	89339.58825	2614.20289
0.42844	89256.74376	2613.20289
0.42719	89174.04242	2612.20289
0.42594	89091.48358	2611.20289
0.42469	89009.06661	2610.20289
0.42345	88926.79086	2609.20289
0.42221	88844.65569	2608.20289
0.42097	88762.66047	2607.20289
0.41974	88680.80457	2606.20289
0.41851	88599.08736	2605.20289
0.41728	88517.50821	2604.20289
0.41606	88436.06650	2603.20289
0.41484	88354.76161	2602.20289
0.41362	88273.59294	2601.20289
0.41241	88192.55985	2600.20289
0.41120	88111.66176	2599.20289
0.41000	88030.89804	2598.20289
0.40879	87950.26810	2597.20289
0.40760	87869.77134	2596.20289
0.40640	87789.40716	2595.20289
0.40521	87709.17496	2594.20289
0.40402	87629.07415	2593.20289
0.40283	87549.10415	2592.20289
0.40165	87469.26437	2591.20289
0.40047	87389.55423	2590.20289
0.39930	87309.97315	2589.20289
0.39813	87230.52055	2588.20289
0.39696	87151.19585	2587.20289
0.39579	87071.99849	2586.20289
0.39463	86992.92790	2585.20289
0.39347	86913.98352	2584.20289
0.39232	86835.16477	2583.20289
0.39116	86756.47111	2582.20289
0.39001	86677.90196	2581.20289
0.38887	86599.45679	2580.20289
0.38772	86521.13503	2579.20289
0.38658	86442.93614	2578.20289
0.38545	86364.85958	2577.20289
0.38431	86286.90479	2576.20289
0.38318	86209.07124	2575.20289
0.38205	86131.35839	2574.20289
0.38093	86053.76570	2573.20289
0.37981	85976.29264	2572.20289
0.37869	85898.93868	2571.20289
0.37757	85821.70329	2570.20289
0.37646	85744.58595	2569.20289
0.37535	85667.58612	2568.20289
0.37424	85590.70331	2567.20289
0.37314	85513.93697	2566.20289
0.37204	85437.28660	2565.20289
0.37094	85360.75169	2564.20289
0.36985	85284.33172	2563.20289
0.36876	85208.02619	2562.20289
0.36767	85131.83459	2561.20289
0.36658	85055.75641	2560.20289
0.36550	84979.79116	2559.20289
0.36442	84903.93834	2558.20289
0.36334	84828.19744	2557.20289
0.36226	84752.56799	2556.20289
0.36119	84677.04947	2555.20289
0.36012	84601.64141	2554.20289
0.35906	84526.34332	2553.20289
0.35799	84451.15471	2552.20289
0.35693	84376.07511	2551.20289
0.35587	84301.10402	2550.20289
0.35482	84226.24097	2549.20289
0.35377	84151.48548	2548.20289
0.35272	84076.83709	2547.20289
0.35167	84002.29532	2546.20289
0.35062	83927.85969	2545.20289
0.34958	83853.52975	2544.20289
0.34854	83779.30503	2543.20289
0.34751	83705.18506	2542.20289
0.34647	83631.16938	2541.20289
0.34544	83557.25754	2540.20289
0.34441	83483.44907	2539.20289
0.34339	83409.74352	2538.20289
0.34236	83336.14045	2537.20289
0.34134	83262.63939	2536.20289
0.34032	83189.23990	2535.20289
0.33931	83115.94153	2534.20289
0.33829	83042.74384	2533.20289
0.33728	82969.64639	2532.20289
0.33627	82896.64873	2531.20289
0.33527	82823.75042	2530.20289
0.33427	82750.95103	2529.20289
0.33327	82678.25013	2528.20289
0.33227	82605.64727	2527.20289
0.33127	82533.14204	2526.20289
0.33028	82460.73399	2525.20289
0.32929	82388.42270	2524.20289
0.32830	82316.20775	2523.20289
0.32731	82244.08871	2522.20289
0.32633	82172.06516	2521.20289
0.32535	82100.13668	2520.20289
0.32437	82028.30285	2519.20289
0.32339	81956.56325	2518.20289
0.32242	81884.91747	2517.20289
0.32145	81813.36510	2516.20289
0.32048	81741.90572	2515.20289
0.31951	81670.53893	2514.20289
0.31854	81599.26431	2513.20289
0.31758	81528.08147	2512.20289
0.31662	81456.98998	2511.20289
0.31566	81385.98946	2510.20289
0.31471	81315.07951	2509.20289
0.31375	81244.25971	2508.20289
0.31280	81173.52968	2507.20289
0.31185	81102.88901	2506.20289
0.31091	81032.33732	2505.20289
0.30996	80961.87421	2504.20289
0.30902	80891.49928	2503.20289
0.30808	80821.21215	2502.20289
0.30714	80751.01243	2501.20289
0.30620	80680.89974	2500.20289
0.30527	80610.87367	2499.20289
0.30434	80540.93387	2498.20289
0.30341	80471.07993	2497.20289
0.30248	80401.31148	2496.20289
0.30156	80331.62815	2495.20289
0.30063	80262.02954	2494.20289
0.29971	80192.51529	2493.20289
0.29879	80123.08503	2492.20289
0.29788	80053.73836	2491.20289
0.29696	79984.47494	2490.20289
0.29605	79915.29438	2489.20289
0.29514	79846.19631	2488.20289
0.29423	79777.18038	2487.20289
0.29332	79708.24620	2486.20289
0.29242	79639.39342	2485.20289
0.29152	79570.62166	2484.20289
0.29062	79501.93058	2483.20289
0.28972	79433.31981	2482.20289
0.28882	79364.78898	2481.20289
0.28793	79296.33775	2480.20289
0.28703	79227.96574	2479.20289
0.28614	79159.67261	2478.20289
0.28525	79091.45800	2477.20289
0.28437	79023.32156	2476.20289
0.28348	78955.26293	2475.20289
0.28260	78887.28177	2474.20289
0.28172	78819.37772	2473.20289
0.28084	78751.55044	2472.20289
0.27996	78683.79958	2471.20289
0.27908	78616.12478	2470.20289
0.27821	78548.52572	2469.20289
0.27734	78481.00203	2468.20289
0.27647	78413.55339	2467.20289
0.27560	78346.17944	2466.20289
0.27473	78278.87985	2465.20289
0.27387	78211.65428	2464.20289
0.27300	78144.50239	2463.20289
0.27214	78077.42384	2462.20289
0.27128	78010.41829	2461.20289
0.27042	77943.48541	2460.20289
0.26957	77876.62487	2459.20289
0.26871	77809.83633	2458.20289
0.26786	77743.11947	2457.20289
0.26701	77676.47394	2456.20289
0.26616	77609.89942	2455.20289
0.26531	77543.39557	2454.20289
0.26447	77476.96208	2453.20289
0.26362	77410.59862	2452.20289
0.26278	77344.30485	2451.20289
0.26194	77278.08045	2450.20289
0.26110	77211.92510	2449.20289
0.26026	77145.83847	2448.20289
0.25943	77079.82025	2447.20289
0.25859	77013.87010	2446.20289
0.25776	76947.98771	2445.20289
0.25693	76882.17275	2444.20289
0.25610	76816.42491	2443.20289
0.25527	76750.74388	2442.20289
0.25445	76685.12932	2441.20289
0.25362	76619.58092	2440.20289
0.25280	76554.09837	2439.20289
0.25198	76488.68136	2438.20289
0.25116	76423.32956	2437.20289
0.25034	76358.04266	2436.20289
0.24952	76292.82035	2435.20289
0.24871	76227.66232	2434.20289
0.24789	76162.56826	2433.20289
0.24708	76097.53784	2432.20289
0.24627	76032.57077	2431.20289
0.24546	75967.66673	2430.20289
0.24465	75902.82541	2429.20289
0.24384	75838.04650	2428.20289
0.24304	75773.32970	2427.20289
0.24223	75708.67470	2426.20289
0.24143	75644.08119	2425.20289
0.24063	75579.54886	2424.20289
0.23983	75515.07741	2423.20289
0.23903	75450.66653	2422.20289
0.23824	75386.31592	2421.20289
0.23744	75322.02527	2420.20289
0.23665	75257.79428	2419.20289
0.23585	75193.62264	2418.20289
0.23506	75129.51005	2417.20289
0.23427	75065.45621	2416.20289
0.23348	75001.46082	2415.20289
0.23270	74937.52357	2414.20289
0.23191	74873.64416	2413.20289
0.23112	74809.82229	2412.20289
0.23034	74746.05766	2411.20289
0.22956	74682.34997	2410.20289
0.22878	74618.69892	2409.20289
0.22800	74555.10421	2408.20289
0.22722	74491.56553	2407.20289
0.22644	74428.08259	2406.20289
0.22566	74364.65509	2405.20289
0.22489	74301.28273	2404.20289
0.22411	74237.96521	2403.20289
0.22334	74174.70223	2402.20289
0.22257	74111.49349	2401.20289
0.22180	74048.33869	2400.20289
0.22103	73985.23754	2399.20289
0.22026	73922.18973	2398.20289
0.21950	73859.19497	2397.20289
0.21873	73796.25296	2396.20289
0.21797	73733.36340	2395.20289
0.21720	73670.52599	2394.20289
0.21644	73607.74044	2393.20289
0.21568	73545.00644	2392.20289
0.21492	73482.32369	2391.20289
0.21416	73419.69190	2390.20289
0.21340	73357.11077	2389.20289
0.21264	73294.57999	2388.20289
0.21189	73232.09928	2387.20289
0.21113	73169.66832	2386.20289
0.21038	73107.28682	2385.20289
0.20962	73044.95449	2384.20289
0.20887	72982.67101	2383.20289
0.20812	72920.43609	2382.20289
0.20737	72858.24942	2381.20289
0.20662	72796.11071	2380.20289
0.20587	72734.01966	2379.20289
0.20513	72671.97595	2378.20289
0.20438	72609.97930	2377.20289
0.20363	72548.02939	2376.20289
0.20289	72486.12592	2375.20289
0.20215	72424.26859	2374.20289
0.20140	72362.45709	2373.20289
0.20066	72300.69112	2372.20289
0.19992	72238.97036	2371.20289
0.19918	72177.29452	2370.20289
0.19844	72115.66329	2369.20289
0.19770	72054.07636	2368.20289
0.19696	71992.53341	2367.20289
0.19623	71931.03414	2366.20289
0.19549	71869.57824	2365.20289
0.19476	71808.16539	2364.20289
0.19402	71746.79529	2363.20289
0.19329	71685.46761	2362.20289
0.19255	71624.18205	2361.20289
0.19182	71562.93829	2360.20289
0.19109	71501.73600	2359.20289
0.19036	71440.57489	2358.20289
0.18963	71379.45461	2357.20289
0.18890	71318.37486	2356.20289
0.18817	71257.33531	2355.20289
0.18744	71196.33564	2354.20289
0.18671	71135.37552	2353.20289
0.18599	71074.45463	2352.20289
0.18526	71013.57263	2351.20289
0.18453	70952.72921	2350.20289
0.18381	70891.92403	2349.20289
0.18308	70831.15675	2348.20289
0.18236	70770.42705	2347.20289
0.18164	70709.73459	2346.20289
0.18091	70649.07902	2345.20289
0.18019	70588.46002	2344.20289
0.17947	70527.87723	2343.20289
0.17875	70467.33032	2342.20289
0.17803	70406.81894	2341.20289
0.17731	70346.34274	2340.20289
0.17659	70285.90137	2339.20289
0.17587	70225.49447	2338.20289
0.17515	70165.12171	2337.20289
0.17443	70104.78271	2336.20289
0.17371	70044.47711	2335.20289
0.17299	69984.20457	2334.20289
0.17227	69923.96470	2333.20289
0.17156	69863.75714	2332.20289
0.17084	69803.58153	2331.20289
0.17012	69743.43749	2330.20289
0.16941	69683.32464	2329.20289
0.16869	69623.24260	2328.20289
0.16798	69563.19098	2327.20289
0.16726	69503.16942	2326.20289
0.16655	69443.17751	2325.20289
0.16583	69383.21485	2324.20289
0.16512	69323.28107	2323.20289
0.16440	69263.37574	2322.20289
0.16369	69203.49848	2321.20289
0.16297	69143.64886	2320.20289
0.16226	69083.82649	2319.20289
0.16154	69024.03094	2318.20289
0.16083	68964.26179	2317.20289
0.16012	68904.51862	2316.20289
0.15940	68844.80099	2315.20289
0.15869	68785.10848	2314.20289
0.15798	68725.44064	2313.20289
0.15726	68665.79703	2312.20289
0.15655	68606.17720	2311.20289
0.15583	68546.58069	2310.20289
0.15512	68487.00704	2309.20289
0.15441	68427.45579	2308.20289
0.15369	68367.92646	2307.20289
0.15298	68308.41859	2306.20289
0.15226	68248.93167	2305.20289
0.15155	68189.46522	2304.20289
0.15084	68130.01875	2303.20289
0.15012	68070.59175	2302.20289
0.14941	68011.18371	2301.20289
0.14869	67951.79410	2300.20289
0.14798	67892.42242	2299.20289
0.14726	67833.06811	2298.20289
0.14654	67773.73064	2297.20289
0.14583	67714.40946	2296.20289
0.14511	67655.10401	2295.20289
0.14439	67595.81372	2294.20289
0.14368	67536.53802	2293.20289
0.14296	67477.27632	2292.20289
0.14224	67418.02802	2291.20289
0.14152	67358.79253	2290.20289
0.14080	67299.56922	2289.20289
0.14008	67240.35747	2288.20289
0.13936	67181.15664	2287.20289
0.13864	67121.96608	2286.20289
0.13792	67062.78514	2285.20289
0.13719	67003.61313	2284.20289
0.13647	66944.44938	2283.20289
0.13575	66885.29319	2282.20289
0.13502	66826.14383	2281.20289
0.13430	66767.00060	2280.20289
0.13357	66707.86275	2279.20289
0.13284	66648.72951	2278.20289
0.13211	66589.60014	2277.20289
0.13138	66530.47382	2276.20289
0.13065	66471.34977	2275.20289
0.12992	66412.22716	2274.20289
0.12919	66353.10515	2273.20289
0.12846	66293.98289	2272.20289
0.12772	66234.85949	2271.20289
0.12699	66175.73407	2270.20289
0.12625	66116.60570	2269.20289
0.12551	66057.47345	2268.20289
0.12477	65998.33635	2267.20289
0.12403	65939.19343	2266.20289
0.12329	65880.04366	2265.20289
0.12254	65820.88602	2264.20289
0.12180	65761.71945	2263.20289
0.12105	65702.54286	2262.20289
0.12030	65643.35513	2261.20289
0.11955	65584.15512	2260.20289
0.11880	65524.94166	2259.20289
0.11805	65465.71352	2258.20289
0.11729	65406.46948	2257.20289
0.11653	65347.20826	2256.20289
0.11577	65287.92853	2255.20289
0.11501	65228.62896	2254.20289
0.11425	65169.30815	2253.20289
0.11348	65109.96466	2252.20289
0.11272	65050.59703	2251.20289
0.11195	64991.20372	2250.20289
0.11117	64931.78318	2249.20289
0.11040	64872.33377	2248.20289
0.10962	64812.85384	2247.20289
0.10884	64753.34165	2246.20289
0.10806	64693.79543	2245.20289
0.10727	64634.21332	2244.20289
0.10648	64574.59343	2243.20289
0.10569	64514.93377	2242.20289
0.10490	64455.23230	2241.20289
0.10410	64395.48692	2240.20289
0.10330	64335.69542	2239.20289
0.10249	64275.85552	2238.20289
