Mole fraction of liquid	Heat per mole [J]	Temperature [K]
1.00000	1.21956E5	2896.00206
0.99998	1.21951E5	2895.90644
0.99657	1.21782E5	2894.90644
0.99318	1.21613E5	2893.90644
0.98980	1.21444E5	2892.90644
0.98644	1.21277E5	2891.90644
0.98309	1.21109E5	2890.90644
0.97976	1.20943E5	2889.90644
0.97644	1.20777E5	2888.90644
0.97313	1.20611E5	2887.90644
0.96984	1.20446E5	2886.90644
0.96656	1.20282E5	2885.90644
0.96330	1.20118E5	2884.90644
0.96005	1.19955E5	2883.90644
0.95681	1.19793E5	2882.90644
0.95359	1.19630E5	2881.90644
0.95038	1.19469E5	2880.90644
0.94718	1.19308E5	2879.90644
0.94400	1.19148E5	2878.90644
0.94083	1.18988E5	2877.90644
0.93768	1.18829E5	2876.90644
0.93453	1.18670E5	2875.90644
0.93141	1.18512E5	2874.90644
0.92829	1.18354E5	2873.90644
0.92519	1.18197E5	2872.90644
0.92210	1.18040E5	2871.90644
0.91902	1.17884E5	2870.90644
0.91596	1.17729E5	2869.90644
0.91291	1.17574E5	2868.90644
0.90987	1.17419E5	2867.90644
0.90684	1.17265E5	2866.90644
0.90383	1.17112E5	2865.90644
0.90083	1.16959E5	2864.90644
0.89784	1.16806E5	2863.90644
0.89486	1.16654E5	2862.90644
0.89190	1.16503E5	2861.90644
0.88895	1.16352E5	2860.90644
0.88601	1.16201E5	2859.90644
0.88308	1.16051E5	2858.90644
0.88016	1.15902E5	2857.90644
0.87726	1.15753E5	2856.90644
0.87437	1.15604E5	2855.90644
0.87149	1.15456E5	2854.90644
0.86862	1.15309E5	2853.90644
0.86576	1.15162E5	2852.90644
0.86292	1.15015E5	2851.90644
0.86009	1.14869E5	2850.90644
0.85726	1.14723E5	2849.90644
0.85445	1.14578E5	2848.90644
0.85166	1.14433E5	2847.90644
0.84887	1.14289E5	2846.90644
0.84609	1.14145E5	2845.90644
0.84333	1.14002E5	2844.90644
0.84057	1.13859E5	2843.90644
0.83783	1.13716E5	2842.90644
0.83510	1.13574E5	2841.90644
0.83238	1.13433E5	2840.90644
0.82967	1.13291E5	2839.90644
0.82697	1.13151E5	2838.90644
0.82428	1.13010E5	2837.90644
0.82160	1.12871E5	2836.90644
0.81893	1.12731E5	2835.90644
0.81628	1.12592E5	2834.90644
0.81363	1.12454E5	2833.90644
0.81100	1.12315E5	2832.90644
0.80837	1.12178E5	2831.90644
0.80576	1.12040E5	2830.90644
0.80315	1.11904E5	2829.90644
0.80056	1.11767E5	2828.90644
0.79797	1.11631E5	2827.90644
0.79540	1.11495E5	2826.90644
0.79284	1.11360E5	2825.90644
0.79028	1.11225E5	2824.90644
0.78774	1.11091E5	2823.90644
0.78521	1.10957E5	2822.90644
0.78268	1.10823E5	2821.90644
0.78017	1.10690E5	2820.90644
0.77767	1.10557E5	2819.90644
0.77517	1.10425E5	2818.90644
0.77269	1.10293E5	2817.90644
0.77021	1.10161E5	2816.90644
0.76775	1.10030E5	2815.90644
0.76529	1.09899E5	2814.90644
0.76285	1.09769E5	2813.90644
0.76041	1.09638E5	2812.90644
0.75798	1.09509E5	2811.90644
0.75556	1.09379E5	2810.90644
0.75316	1.09250E5	2809.90644
0.75076	1.09122E5	2808.90644
0.74837	1.08994E5	2807.90644
0.74598	1.08866E5	2806.90644
0.74361	1.08738E5	2805.90644
0.74125	1.08611E5	2804.90644
0.73890	1.08484E5	2803.90644
0.73655	1.08358E5	2802.90644
0.73422	1.08232E5	2801.90644
0.73189	1.08106E5	2800.90644
0.72957	1.07981E5	2799.90644
0.72726	1.07856E5	2798.90644
0.72496	1.07731E5	2797.90644
0.72267	1.07607E5	2796.90644
0.72039	1.07483E5	2795.90644
0.71811	1.07359E5	2794.90644
0.71584	1.07236E5	2793.90644
0.71359	1.07113E5	2792.90644
0.71134	1.06990E5	2791.90644
0.70910	1.06868E5	2790.90644
0.70686	1.06746E5	2789.90644
0.70464	1.06625E5	2788.90644
0.70243	1.06503E5	2787.90644
0.70022	1.06383E5	2786.90644
0.69802	1.06262E5	2785.90644
0.69583	1.06142E5	2784.90644
0.69365	1.06022E5	2783.90644
0.69147	1.05902E5	2782.90644
0.68930	1.05783E5	2781.90644
0.68715	1.05664E5	2780.90644
0.68499	1.05545E5	2779.90644
0.68285	1.05427E5	2778.90644
0.68072	1.05309E5	2777.90644
0.67859	1.05191E5	2776.90644
0.67647	1.05074E5	2775.90644
0.67436	1.04957E5	2774.90644
0.67226	1.04840E5	2773.90644
0.67016	1.04724E5	2772.90644
0.66807	1.04607E5	2771.90644
0.66599	1.04492E5	2770.90644
0.66392	1.04376E5	2769.90644
0.66185	1.04261E5	2768.90644
0.65980	1.04146E5	2767.90644
0.65775	1.04031E5	2766.90644
0.65570	1.03917E5	2765.90644
0.65367	1.03803E5	2764.90644
0.65164	1.03689E5	2763.90644
0.64962	1.03576E5	2762.90644
0.64760	1.03462E5	2761.90644
0.64560	1.03350E5	2760.90644
0.64360	1.03237E5	2759.90644
0.64161	1.03125E5	2758.90644
0.63962	1.03013E5	2757.90644
0.63765	1.02901E5	2756.90644
0.63567	1.02789E5	2755.90644
0.63371	1.02678E5	2754.90644
0.63175	1.02567E5	2753.90644
0.62981	1.02457E5	2752.90644
0.62786	1.02346E5	2751.90644
0.62593	1.02236E5	2750.90644
0.62400	1.02126E5	2749.90644
0.62208	1.02017E5	2748.90644
0.62016	1.01908E5	2747.90644
0.61825	1.01799E5	2746.90644
0.61635	1.01690E5	2745.90644
0.61446	1.01581E5	2744.90644
0.61257	1.01473E5	2743.90644
0.61069	1.01365E5	2742.90644
0.60881	1.01258E5	2741.90644
0.60694	1.01150E5	2740.90644
0.60508	1.01043E5	2739.90644
0.60323	1.00936E5	2738.90644
0.60138	1.00829E5	2737.90644
0.59954	1.00723E5	2736.90644
0.59770	1.00617E5	2735.90644
0.59587	1.00511E5	2734.90644
0.59405	1.00405E5	2733.90644
0.59223	1.00300E5	2732.90644
0.59042	1.00195E5	2731.90644
0.58862	1.00090E5	2730.90644
0.58682	99985.42211	2729.90644
0.58503	99881.03432	2728.90644
0.58324	99776.89070	2727.90644
0.58146	99672.99003	2726.90644
0.57969	99569.33110	2725.90644
0.57792	99465.91270	2724.90644
0.57616	99362.73365	2723.90644
0.57440	99259.79273	2722.90644
0.57265	99157.08879	2721.90644
0.57091	99054.62062	2720.90644
0.56917	98952.38708	2719.90644
0.56744	98850.38699	2718.90644
0.56572	98748.61920	2717.90644
0.56400	98647.08255	2716.90644
0.56228	98545.77591	2715.90644
0.56058	98444.69815	2714.90644
0.55887	98343.84812	2713.90644
0.55718	98243.22471	2712.90644
0.55549	98142.82680	2711.90644
0.55380	98042.65328	2710.90644
0.55212	97942.70305	2709.90644
0.55045	97842.97501	2708.90644
0.54878	97743.46807	2707.90644
0.54712	97644.18115	2706.90644
0.54546	97545.11316	2705.90644
0.54381	97446.26304	2704.90644
0.54217	97347.62972	2703.90644
0.54052	97249.21213	2702.90644
0.53889	97151.00924	2701.90644
0.53726	97053.01998	2700.90644
0.53564	96955.24331	2699.90644
0.53402	96857.67821	2698.90644
0.53240	96760.32364	2697.90644
0.53080	96663.17857	2696.90644
0.52919	96566.24200	2695.90644
0.52760	96469.51290	2694.90644
0.52600	96372.99027	2693.90644
0.52442	96276.67310	2692.90644
0.52284	96180.56041	2691.90644
0.52126	96084.65121	2690.90644
0.51969	95988.94450	2689.90644
0.51812	95893.43932	2688.90644
0.51656	95798.13468	2687.90644
0.51500	95703.02962	2686.90644
0.51345	95608.12319	2685.90644
0.51191	95513.41441	2684.90644
0.51037	95418.90235	2683.90644
0.50883	95324.58605	2682.90644
0.50730	95230.46458	2681.90644
0.50577	95136.53699	2680.90644
0.50425	95042.80236	2679.90644
0.50274	94949.25977	2678.90644
0.50123	94855.90829	2677.90644
0.49972	94762.74701	2676.90644
0.49822	94669.77502	2675.90644
0.49672	94576.99142	2674.90644
0.49523	94484.39530	2673.90644
0.49374	94391.98578	2672.90644
0.49226	94299.76195	2671.90644
0.49078	94207.72294	2670.90644
0.48931	94115.86787	2669.90644
0.48784	94024.19587	2668.90644
0.48638	93932.70605	2667.90644
0.48492	93841.39756	2666.90644
0.48346	93750.26954	2665.90644
0.48201	93659.32113	2664.90644
0.48057	93568.55148	2663.90644
0.47913	93477.95974	2662.90644
0.47769	93387.54507	2661.90644
0.47626	93297.30664	2660.90644
0.47483	93207.24361	2659.90644
0.47341	93117.35515	2658.90644
0.47199	93027.64044	2657.90644
0.47058	92938.09866	2656.90644
0.46917	92848.72900	2655.90644
0.46776	92759.53064	2654.90644
0.46636	92670.50279	2653.90644
0.46497	92581.64463	2652.90644
0.46357	92492.95537	2651.90644
0.46219	92404.43421	2650.90644
0.46080	92316.08038	2649.90644
0.45942	92227.89309	2648.90644
0.45805	92139.87154	2647.90644
0.45668	92052.01498	2646.90644
0.45531	91964.32262	2645.90644
0.45395	91876.79371	2644.90644
0.45259	91789.42746	2643.90644
0.45124	91702.22314	2642.90644
0.44989	91615.17997	2641.90644
0.44854	91528.29722	2640.90644
0.44720	91441.57412	2639.90644
0.44586	91355.00995	2638.90644
0.44453	91268.60395	2637.90644
0.44320	91182.35540	2636.90644
0.44187	91096.26356	2635.90644
0.44055	91010.32770	2634.90644
0.43923	90924.54710	2633.90644
0.43792	90838.92105	2632.90644
0.43661	90753.44881	2631.90644
0.43530	90668.12969	2630.90644
0.43400	90582.96297	2629.90644
0.43270	90497.94794	2628.90644
0.43141	90413.08391	2627.90644
0.43012	90328.37018	2626.90644
0.42883	90243.80606	2625.90644
0.42755	90159.39084	2624.90644
0.42627	90075.12385	2623.90644
0.42500	89991.00441	2622.90644
0.42373	89907.03182	2621.90644
0.42246	89823.20543	2620.90644
0.42119	89739.52455	2619.90644
0.41993	89655.98851	2618.90644
0.41868	89572.59665	2617.90644
0.41743	89489.34831	2616.90644
0.41618	89406.24283	2615.90644
0.41493	89323.27954	2614.90644
0.41369	89240.45781	2613.90644
0.41245	89157.77698	2612.90644
0.41122	89075.23641	2611.90644
0.40999	88992.83544	2610.90644
0.40876	88910.57346	2609.90644
0.40754	88828.44981	2608.90644
0.40631	88746.46387	2607.90644
0.40510	88664.61500	2606.90644
0.40388	88582.90259	2605.90644
0.40268	88501.32600	2604.90644
0.40147	88419.88462	2603.90644
0.40027	88338.57783	2602.90644
0.39907	88257.40503	2601.90644
0.39787	88176.36559	2600.90644
0.39668	88095.45891	2599.90644
0.39549	88014.68438	2598.90644
0.39430	87934.04141	2597.90644
0.39312	87853.52940	2596.90644
0.39194	87773.14775	2595.90644
0.39077	87692.89587	2594.90644
0.38959	87612.77317	2593.90644
0.38842	87532.77907	2592.90644
0.38726	87452.91297	2591.90644
0.38610	87373.17431	2590.90644
0.38494	87293.56249	2589.90644
0.38378	87214.07695	2588.90644
0.38263	87134.71712	2587.90644
0.38148	87055.48243	2586.90644
0.38033	86976.37230	2585.90644
0.37919	86897.38618	2584.90644
0.37805	86818.52350	2583.90644
0.37691	86739.78371	2582.90644
0.37578	86661.16626	2581.90644
0.37465	86582.67058	2580.90644
0.37352	86504.29613	2579.90644
0.37240	86426.04236	2578.90644
0.37127	86347.90873	2577.90644
0.37016	86269.89469	2576.90644
0.36904	86191.99971	2575.90644
0.36793	86114.22325	2574.90644
0.36682	86036.56477	2573.90644
0.36571	85959.02375	2572.90644
0.36461	85881.59964	2571.90644
0.36351	85804.29194	2570.90644
0.36241	85727.10011	2569.90644
0.36132	85650.02363	2568.90644
0.36023	85573.06198	2567.90644
0.35914	85496.21464	2566.90644
0.35805	85419.48111	2565.90644
0.35697	85342.86087	2564.90644
0.35589	85266.35340	2563.90644
0.35481	85189.95821	2562.90644
0.35374	85113.67479	2561.90644
0.35267	85037.50264	2560.90644
0.35160	84961.44125	2559.90644
0.35053	84885.49013	2558.90644
0.34947	84809.64878	2557.90644
0.34841	84733.91672	2556.90644
0.34735	84658.29344	2555.90644
0.34630	84582.77847	2554.90644
0.34525	84507.37131	2553.90644
0.34420	84432.07148	2552.90644
0.34315	84356.87850	2551.90644
0.34211	84281.79190	2550.90644
0.34107	84206.81118	2549.90644
0.34003	84131.93589	2548.90644
0.33900	84057.16553	2547.90644
0.33796	83982.49966	2546.90644
0.33693	83907.93779	2545.90644
0.33591	83833.47945	2544.90644
0.33488	83759.12419	2543.90644
0.33386	83684.87155	2542.90644
0.33284	83610.72105	2541.90644
0.33182	83536.67225	2540.90644
0.33081	83462.72469	2539.90644
0.32980	83388.87791	2538.90644
0.32879	83315.13146	2537.90644
0.32778	83241.48489	2536.90644
0.32678	83167.93775	2535.90644
0.32577	83094.48960	2534.90644
0.32478	83021.13999	2533.90644
0.32378	82947.88848	2532.90644
0.32278	82874.73463	2531.90644
0.32179	82801.67799	2530.90644
0.32080	82728.71815	2529.90644
0.31982	82655.85465	2528.90644
0.31883	82583.08707	2527.90644
0.31785	82510.41497	2526.90644
0.31687	82437.83793	2525.90644
0.31589	82365.35551	2524.90644
0.31492	82292.96730	2523.90644
0.31395	82220.67287	2522.90644
0.31298	82148.47180	2521.90644
0.31201	82076.36366	2520.90644
0.31104	82004.34804	2519.90644
0.31008	81932.42452	2518.90644
0.30912	81860.59269	2517.90644
0.30816	81788.85213	2516.90644
0.30721	81717.20244	2515.90644
0.30625	81645.64319	2514.90644
0.30530	81574.17399	2513.90644
0.30435	81502.79443	2512.90644
0.30340	81431.50410	2511.90644
0.30246	81360.30260	2510.90644
0.30152	81289.18952	2509.90644
0.30058	81218.16447	2508.90644
0.29964	81147.22705	2507.90644
0.29870	81076.37686	2506.90644
0.29777	81005.61351	2505.90644
0.29684	80934.93660	2504.90644
0.29591	80864.34574	2503.90644
0.29498	80793.84054	2502.90644
0.29406	80723.42061	2501.90644
0.29313	80653.08557	2500.90644
0.29221	80582.83502	2499.90644
0.29129	80512.66858	2498.90644
0.29038	80442.58587	2497.90644
0.28946	80372.58650	2496.90644
0.28855	80302.67011	2495.90644
0.28764	80232.83630	2494.90644
0.28673	80163.08470	2493.90644
0.28583	80093.41493	2492.90644
0.28492	80023.82662	2491.90644
0.28402	79954.31940	2490.90644
0.28312	79884.89289	2489.90644
0.28222	79815.54673	2488.90644
0.28132	79746.28053	2487.90644
0.28043	79677.09395	2486.90644
0.27954	79607.98660	2485.90644
0.27865	79538.95812	2484.90644
0.27776	79470.00815	2483.90644
0.27687	79401.13633	2482.90644
0.27599	79332.34229	2481.90644
0.27511	79263.62567	2480.90644
0.27423	79194.98612	2479.90644
0.27335	79126.42328	2478.90644
0.27247	79057.93678	2477.90644
0.27160	78989.52628	2476.90644
0.27072	78921.19142	2475.90644
0.26985	78852.93185	2474.90644
0.26898	78784.74720	2473.90644
0.26811	78716.63715	2472.90644
0.26725	78648.60132	2471.90644
0.26638	78580.63938	2470.90644
0.26552	78512.75097	2469.90644
0.26466	78444.93576	2468.90644
0.26380	78377.19338	2467.90644
0.26295	78309.52351	2466.90644
0.26209	78241.92580	2465.90644
0.26124	78174.39989	2464.90644
0.26039	78106.94546	2463.90644
0.25954	78039.56217	2462.90644
0.25869	77972.24966	2461.90644
0.25784	77905.00761	2460.90644
0.25700	77837.83567	2459.90644
0.25615	77770.73352	2458.90644
0.25531	77703.70080	2457.90644
0.25447	77636.73720	2456.90644
0.25364	77569.84237	2455.90644
0.25280	77503.01599	2454.90644
0.25196	77436.25771	2453.90644
0.25113	77369.56721	2452.90644
0.25030	77302.94417	2451.90644
0.24947	77236.38824	2450.90644
0.24864	77169.89910	2449.90644
0.24782	77103.47642	2448.90644
0.24699	77037.11988	2447.90644
0.24617	76970.82914	2446.90644
0.24535	76904.60389	2445.90644
0.24453	76838.44379	2444.90644
0.24371	76772.34853	2443.90644
0.24289	76706.31778	2442.90644
0.24207	76640.35122	2441.90644
0.24126	76574.44852	2440.90644
0.24045	76508.60936	2439.90644
0.23964	76442.83343	2438.90644
0.23883	76377.12040	2437.90644
0.23802	76311.46995	2436.90644
0.23721	76245.88176	2435.90644
0.23641	76180.35552	2434.90644
0.23560	76114.89091	2433.90644
0.23480	76049.48760	2432.90644
0.23400	75984.14529	2431.90644
0.23320	75918.86366	2430.90644
0.23240	75853.64239	2429.90644
0.23160	75788.48116	2428.90644
0.23081	75723.37966	2427.90644
0.23001	75658.33758	2426.90644
0.22922	75593.35460	2425.90644
0.22843	75528.43041	2424.90644
0.22764	75463.56470	2423.90644
0.22685	75398.75714	2422.90644
0.22606	75334.00744	2421.90644
0.22528	75269.31528	2420.90644
0.22449	75204.68034	2419.90644
0.22371	75140.10231	2418.90644
0.22293	75075.58089	2417.90644
0.22215	75011.11576	2416.90644
0.22137	74946.70661	2415.90644
0.22059	74882.35313	2414.90644
0.21981	74818.05502	2413.90644
0.21904	74753.81195	2412.90644
0.21826	74689.62362	2411.90644
0.21749	74625.48972	2410.90644
0.21671	74561.40995	2409.90644
0.21594	74497.38398	2408.90644
0.21517	74433.41151	2407.90644
0.21441	74369.49224	2406.90644
0.21364	74305.62584	2405.90644
0.21287	74241.81202	2404.90644
0.21211	74178.05046	2403.90644
0.21134	74114.34086	2402.90644
0.21058	74050.68289	2401.90644
0.20982	73987.07626	2400.90644
0.20906	73923.52065	2399.90644
0.20830	73860.01576	2398.90644
0.20754	73796.56126	2397.90644
0.20678	73733.15686	2396.90644
0.20602	73669.80224	2395.90644
0.20527	73606.49709	2394.90644
0.20451	73543.24109	2393.90644
0.20376	73480.03395	2392.90644
0.20301	73416.87534	2391.90644
0.20226	73353.76495	2390.90644
0.20150	73290.70247	2389.90644
0.20076	73227.68759	2388.90644
0.20001	73164.71999	2387.90644
0.19926	73101.79936	2386.90644
0.19851	73038.92539	2385.90644
0.19777	72976.09775	2384.90644
0.19702	72913.31614	2383.90644
0.19628	72850.58023	2382.90644
0.19553	72787.88971	2381.90644
0.19479	72725.24427	2380.90644
0.19405	72662.64358	2379.90644
0.19331	72600.08732	2378.90644
0.19257	72537.57517	2377.90644
0.19183	72475.10682	2376.90644
0.19109	72412.68194	2375.90644
0.19036	72350.30021	2374.90644
0.18962	72287.96130	2373.90644
0.18889	72225.66489	2372.90644
0.18815	72163.41066	2371.90644
0.18742	72101.19827	2370.90644
0.18668	72039.02740	2369.90644
0.18595	71976.89772	2368.90644
0.18522	71914.80891	2367.90644
0.18449	71852.76061	2366.90644
0.18376	71790.75252	2365.90644
0.18303	71728.78428	2364.90644
0.18230	71666.85557	2363.90644
0.18157	71604.96605	2362.90644
0.18084	71543.11537	2361.90644
0.18012	71481.30321	2360.90644
0.17939	71419.52921	2359.90644
0.17867	71357.79303	2358.90644
0.17794	71296.09433	2357.90644
0.17722	71234.43275	2356.90644
0.17649	71172.80796	2355.90644
0.17577	71111.21960	2354.90644
0.17505	71049.66732	2353.90644
0.17432	70988.15075	2352.90644
0.17360	70926.66955	2351.90644
0.17288	70865.22336	2350.90644
0.17216	70803.81180	2349.90644
0.17144	70742.43453	2348.90644
0.17072	70681.09117	2347.90644
0.17000	70619.78135	2346.90644
0.16928	70558.50470	2345.90644
0.16856	70497.26085	2344.90644
0.16784	70436.04942	2343.90644
0.16713	70374.87004	2342.90644
0.16641	70313.72230	2341.90644
0.16569	70252.60585	2340.90644
0.16497	70191.52027	2339.90644
0.16426	70130.46519	2338.90644
0.16354	70069.44020	2337.90644
0.16283	70008.44491	2336.90644
0.16211	69947.47891	2335.90644
0.16139	69886.54180	2334.90644
0.16068	69825.63318	2333.90644
0.15996	69764.75262	2332.90644
0.15925	69703.89970	2331.90644
0.15854	69643.07402	2330.90644
0.15782	69582.27514	2329.90644
0.15711	69521.50262	2328.90644
0.15639	69460.75605	2327.90644
0.15568	69400.03498	2326.90644
0.15496	69339.33896	2325.90644
0.15425	69278.66754	2324.90644
0.15354	69218.02028	2323.90644
0.15282	69157.39672	2322.90644
0.15211	69096.79638	2321.90644
0.15140	69036.21881	2320.90644
0.15068	68975.66352	2319.90644
0.14997	68915.13003	2318.90644
0.14925	68854.61786	2317.90644
0.14854	68794.12651	2316.90644
0.14783	68733.65549	2315.90644
0.14711	68673.20428	2314.90644
0.14640	68612.77238	2313.90644
0.14568	68552.35926	2312.90644
0.14497	68491.96439	2311.90644
0.14425	68431.58725	2310.90644
0.14354	68371.22728	2309.90644
0.14282	68310.88394	2308.90644
0.14211	68250.55666	2307.90644
0.14139	68190.24489	2306.90644
0.14068	68129.94804	2305.90644
0.13996	68069.66552	2304.90644
0.13924	68009.39675	2303.90644
0.13852	67949.14112	2302.90644
0.13781	67888.89801	2301.90644
0.13709	67828.66680	2300.90644
0.13637	67768.44685	2299.90644
0.13565	67708.23752	2298.90644
0.13493	67648.03814	2297.90644
0.13421	67587.84806	2296.90644
0.13349	67527.66657	2295.90644
0.13276	67467.49300	2294.90644
0.13204	67407.32663	2293.90644
0.13132	67347.16674	2292.90644
0.13059	67287.01260	2291.90644
0.12987	67226.86345	2290.90644
0.12914	67166.71852	2289.90644
0.12842	67106.57705	2288.90644
0.12769	67046.43823	2287.90644
0.12696	66986.30124	2286.90644
0.12623	66926.16527	2285.90644
0.12550	66866.02944	2284.90644
0.12477	66805.89291	2283.90644
0.12404	66745.75478	2282.90644
0.12330	66685.61414	2281.90644
0.12257	66625.47006	2280.90644
0.12183	66565.32160	2279.90644
0.12109	66505.16779	2278.90644
0.12035	66445.00761	2277.90644
0.11961	66384.84006	2276.90644
0.11887	66324.66409	2275.90644
0.11813	66264.47862	2274.90644
0.11738	66204.28256	2273.90644
0.11664	66144.07478	2272.90644
0.11589	66083.85411	2271.90644
0.11514	66023.61936	2270.90644
0.11439	65963.36932	2269.90644
0.11364	65903.10273	2268.90644
0.11288	65842.81829	2267.90644
0.11212	65782.51468	2266.90644
0.11137	65722.19053	2265.90644
0.11061	65661.84443	2264.90644
0.10984	65601.47493	2263.90644
0.10908	65541.08054	2262.90644
0.10831	65480.65971	2261.90644
0.10754	65420.21087	2260.90644
0.10677	65359.73237	2259.90644
0.10599	65299.22251	2258.90644
0.10522	65238.67956	2257.90644
0.10444	65178.10170	2256.90644
0.10365	65117.48706	2255.90644
0.10287	65056.83373	2254.90644
0.10208	64996.13968	2253.90644
0.10129	64935.40286	2252.90644
0.10049	64874.62112	2251.90644
0.09970	64813.79223	2250.90644
0.09890	64752.91388	2249.90644
0.09809	64691.98368	2248.90644
0.09728	64630.99914	2247.90644
0.09647	64569.95766	2246.90644
0.09566	64508.85655	2245.90644
0.09484	64447.69302	2244.90644
0.09401	64386.46415	2243.90644
