Mole fraction of liquid	Heat per mole [J]	Temperature [K]
1.00000	1.22160E5	2945.96439
0.99998	1.22155E5	2945.86877
0.99660	1.21983E5	2944.86877
0.99324	1.21812E5	2943.86877
0.98988	1.21642E5	2942.86877
0.98655	1.21472E5	2941.86877
0.98323	1.21303E5	2940.86877
0.97992	1.21135E5	2939.86877
0.97663	1.20967E5	2938.86877
0.97336	1.20799E5	2937.86877
0.97009	1.20633E5	2936.86877
0.96685	1.20467E5	2935.86877
0.96361	1.20301E5	2934.86877
0.96039	1.20137E5	2933.86877
0.95719	1.19972E5	2932.86877
0.95400	1.19809E5	2931.86877
0.95082	1.19646E5	2930.86877
0.94766	1.19483E5	2929.86877
0.94451	1.19322E5	2928.86877
0.94137	1.19160E5	2927.86877
0.93825	1.19000E5	2926.86877
0.93514	1.18840E5	2925.86877
0.93205	1.18680E5	2924.86877
0.92897	1.18521E5	2923.86877
0.92590	1.18363E5	2922.86877
0.92285	1.18205E5	2921.86877
0.91980	1.18048E5	2920.86877
0.91678	1.17891E5	2919.86877
0.91376	1.17735E5	2918.86877
0.91076	1.17580E5	2917.86877
0.90777	1.17425E5	2916.86877
0.90479	1.17270E5	2915.86877
0.90183	1.17116E5	2914.86877
0.89888	1.16963E5	2913.86877
0.89594	1.16810E5	2912.86877
0.89302	1.16658E5	2911.86877
0.89010	1.16506E5	2910.86877
0.88720	1.16355E5	2909.86877
0.88431	1.16204E5	2908.86877
0.88144	1.16054E5	2907.86877
0.87857	1.15904E5	2906.86877
0.87572	1.15755E5	2905.86877
0.87288	1.15606E5	2904.86877
0.87005	1.15458E5	2903.86877
0.86724	1.15311E5	2902.86877
0.86443	1.15163E5	2901.86877
0.86164	1.15017E5	2900.86877
0.85886	1.14871E5	2899.86877
0.85609	1.14725E5	2898.86877
0.85334	1.14580E5	2897.86877
0.85059	1.14435E5	2896.86877
0.84786	1.14291E5	2895.86877
0.84513	1.14147E5	2894.86877
0.84242	1.14004E5	2893.86877
0.83972	1.13861E5	2892.86877
0.83703	1.13719E5	2891.86877
0.83435	1.13577E5	2890.86877
0.83169	1.13436E5	2889.86877
0.82903	1.13295E5	2888.86877
0.82639	1.13155E5	2887.86877
0.82375	1.13015E5	2886.86877
0.82113	1.12875E5	2885.86877
0.81852	1.12736E5	2884.86877
0.81592	1.12598E5	2883.86877
0.81333	1.12459E5	2882.86877
0.81075	1.12322E5	2881.86877
0.80818	1.12184E5	2880.86877
0.80562	1.12048E5	2879.86877
0.80307	1.11911E5	2878.86877
0.80053	1.11775E5	2877.86877
0.79800	1.11640E5	2876.86877
0.79549	1.11505E5	2875.86877
0.79298	1.11370E5	2874.86877
0.79048	1.11236E5	2873.86877
0.78800	1.11102E5	2872.86877
0.78552	1.10969E5	2871.86877
0.78305	1.10836E5	2870.86877
0.78060	1.10704E5	2869.86877
0.77815	1.10572E5	2868.86877
0.77571	1.10440E5	2867.86877
0.77328	1.10309E5	2866.86877
0.77087	1.10178E5	2865.86877
0.76846	1.10047E5	2864.86877
0.76606	1.09917E5	2863.86877
0.76367	1.09788E5	2862.86877
0.76129	1.09658E5	2861.86877
0.75892	1.09530E5	2860.86877
0.75656	1.09401E5	2859.86877
0.75421	1.09273E5	2858.86877
0.75187	1.09145E5	2857.86877
0.74954	1.09018E5	2856.86877
0.74722	1.08891E5	2855.86877
0.74490	1.08765E5	2854.86877
0.74260	1.08639E5	2853.86877
0.74030	1.08513E5	2852.86877
0.73802	1.08388E5	2851.86877
0.73574	1.08263E5	2850.86877
0.73347	1.08138E5	2849.86877
0.73121	1.08014E5	2848.86877
0.72896	1.07890E5	2847.86877
0.72672	1.07767E5	2846.86877
0.72448	1.07644E5	2845.86877
0.72226	1.07521E5	2844.86877
0.72004	1.07398E5	2843.86877
0.71784	1.07276E5	2842.86877
0.71564	1.07155E5	2841.86877
0.71345	1.07033E5	2840.86877
0.71127	1.06912E5	2839.86877
0.70909	1.06792E5	2838.86877
0.70693	1.06672E5	2837.86877
0.70477	1.06552E5	2836.86877
0.70263	1.06432E5	2835.86877
0.70049	1.06313E5	2834.86877
0.69835	1.06194E5	2833.86877
0.69623	1.06076E5	2832.86877
0.69412	1.05957E5	2831.86877
0.69201	1.05840E5	2830.86877
0.68991	1.05722E5	2829.86877
0.68782	1.05605E5	2828.86877
0.68574	1.05488E5	2827.86877
0.68366	1.05372E5	2826.86877
0.68159	1.05255E5	2825.86877
0.67953	1.05140E5	2824.86877
0.67748	1.05024E5	2823.86877
0.67544	1.04909E5	2822.86877
0.67340	1.04794E5	2821.86877
0.67138	1.04679E5	2820.86877
0.66935	1.04565E5	2819.86877
0.66734	1.04451E5	2818.86877
0.66534	1.04338E5	2817.86877
0.66334	1.04224E5	2816.86877
0.66135	1.04111E5	2815.86877
0.65937	1.03999E5	2814.86877
0.65739	1.03886E5	2813.86877
0.65542	1.03774E5	2812.86877
0.65346	1.03663E5	2811.86877
0.65151	1.03551E5	2810.86877
0.64956	1.03440E5	2809.86877
0.64762	1.03329E5	2808.86877
0.64569	1.03219E5	2807.86877
0.64377	1.03108E5	2806.86877
0.64185	1.02998E5	2805.86877
0.63994	1.02889E5	2804.86877
0.63804	1.02779E5	2803.86877
0.63614	1.02670E5	2802.86877
0.63425	1.02562E5	2801.86877
0.63237	1.02453E5	2800.86877
0.63050	1.02345E5	2799.86877
0.62863	1.02237E5	2798.86877
0.62677	1.02129E5	2797.86877
0.62491	1.02022E5	2796.86877
0.62306	1.01915E5	2795.86877
0.62122	1.01808E5	2794.86877
0.61939	1.01702E5	2793.86877
0.61756	1.01595E5	2792.86877
0.61574	1.01490E5	2791.86877
0.61393	1.01384E5	2790.86877
0.61212	1.01278E5	2789.86877
0.61032	1.01173E5	2788.86877
0.60852	1.01068E5	2787.86877
0.60673	1.00964E5	2786.86877
0.60495	1.00860E5	2785.86877
0.60318	1.00756E5	2784.86877
0.60141	1.00652E5	2783.86877
0.59965	1.00548E5	2782.86877
0.59789	1.00445E5	2781.86877
0.59614	1.00342E5	2780.86877
0.59440	1.00239E5	2779.86877
0.59266	1.00137E5	2778.86877
0.59093	1.00034E5	2777.86877
0.58920	99932.49759	2776.86877
0.58749	99830.77912	2775.86877
0.58577	99729.31369	2774.86877
0.58407	99628.10003	2773.86877
0.58237	99527.13687	2772.86877
0.58067	99426.42297	2771.86877
0.57898	99325.95707	2770.86877
0.57730	99225.73794	2769.86877
0.57562	99125.76434	2768.86877
0.57395	99026.03506	2767.86877
0.57229	98926.54888	2766.86877
0.57063	98827.30458	2765.86877
0.56898	98728.30097	2764.86877
0.56733	98629.53686	2763.86877
0.56569	98531.01105	2762.86877
0.56405	98432.72236	2761.86877
0.56242	98334.66963	2760.86877
0.56080	98236.85168	2759.86877
0.55918	98139.26736	2758.86877
0.55757	98041.91552	2757.86877
0.55596	97944.79501	2756.86877
0.55436	97847.90469	2755.86877
0.55276	97751.24343	2754.86877
0.55117	97654.81010	2753.86877
0.54959	97558.60360	2752.86877
0.54801	97462.62279	2751.86877
0.54643	97366.86660	2750.86877
0.54487	97271.33390	2749.86877
0.54330	97176.02361	2748.86877
0.54175	97080.93465	2747.86877
0.54019	96986.06594	2746.86877
0.53865	96891.41640	2745.86877
0.53710	96796.98497	2744.86877
0.53557	96702.77058	2743.86877
0.53404	96608.77219	2742.86877
0.53251	96514.98874	2741.86877
0.53099	96421.41920	2740.86877
0.52947	96328.06253	2739.86877
0.52796	96234.91769	2738.86877
0.52646	96141.98368	2737.86877
0.52496	96049.25946	2736.86877
0.52346	95956.74403	2735.86877
0.52197	95864.43638	2734.86877
0.52049	95772.33552	2733.86877
0.51901	95680.44044	2732.86877
0.51753	95588.75016	2731.86877
0.51606	95497.26371	2730.86877
0.51460	95405.98009	2729.86877
0.51314	95314.89834	2728.86877
0.51168	95224.01751	2727.86877
0.51023	95133.33661	2726.86877
0.50878	95042.85471	2725.86877
0.50734	94952.57085	2724.86877
0.50591	94862.48409	2723.86877
0.50448	94772.59349	2722.86877
0.50305	94682.89812	2721.86877
0.50163	94593.39705	2720.86877
0.50021	94504.08937	2719.86877
0.49880	94414.97415	2718.86877
0.49739	94326.05048	2717.86877
0.49599	94237.31746	2716.86877
0.49459	94148.77418	2715.86877
0.49320	94060.41976	2714.86877
0.49181	93972.25329	2713.86877
0.49042	93884.27390	2712.86877
0.48904	93796.48071	2711.86877
0.48767	93708.87283	2710.86877
0.48629	93621.44940	2709.86877
0.48493	93534.20956	2708.86877
0.48357	93447.15244	2707.86877
0.48221	93360.27718	2706.86877
0.48085	93273.58294	2705.86877
0.47951	93187.06887	2704.86877
0.47816	93100.73413	2703.86877
0.47682	93014.57788	2702.86877
0.47549	92928.59930	2701.86877
0.47415	92842.79754	2700.86877
0.47283	92757.17180	2699.86877
0.47150	92671.72125	2698.86877
0.47019	92586.44508	2697.86877
0.46887	92501.34248	2696.86877
0.46756	92416.41264	2695.86877
0.46626	92331.65478	2694.86877
0.46495	92247.06809	2693.86877
0.46366	92162.65177	2692.86877
0.46236	92078.40506	2691.86877
0.46107	91994.32716	2690.86877
0.45979	91910.41729	2689.86877
0.45851	91826.67468	2688.86877
0.45723	91743.09857	2687.86877
0.45596	91659.68819	2686.86877
0.45469	91576.44278	2685.86877
0.45342	91493.36158	2684.86877
0.45216	91410.44384	2683.86877
0.45091	91327.68881	2682.86877
0.44965	91245.09575	2681.86877
0.44840	91162.66392	2680.86877
0.44716	91080.39258	2679.86877
0.44592	90998.28101	2678.86877
0.44468	90916.32847	2677.86877
0.44345	90834.53424	2676.86877
0.44222	90752.89760	2675.86877
0.44099	90671.41784	2674.86877
0.43977	90590.09424	2673.86877
0.43855	90508.92610	2672.86877
0.43734	90427.91272	2671.86877
0.43613	90347.05338	2670.86877
0.43492	90266.34740	2669.86877
0.43372	90185.79409	2668.86877
0.43252	90105.39276	2667.86877
0.43132	90025.14271	2666.86877
0.43013	89945.04328	2665.86877
0.42894	89865.09377	2664.86877
0.42776	89785.29353	2663.86877
0.42658	89705.64187	2662.86877
0.42540	89626.13814	2661.86877
0.42423	89546.78167	2660.86877
0.42306	89467.57179	2659.86877
0.42189	89388.50786	2658.86877
0.42073	89309.58922	2657.86877
0.41957	89230.81523	2656.86877
0.41841	89152.18524	2655.86877
0.41726	89073.69860	2654.86877
0.41611	88995.35468	2653.86877
0.41496	88917.15284	2652.86877
0.41382	88839.09246	2651.86877
0.41268	88761.17290	2650.86877
0.41155	88683.39353	2649.86877
0.41042	88605.75375	2648.86877
0.40929	88528.25293	2647.86877
0.40816	88450.89045	2646.86877
0.40704	88373.66571	2645.86877
0.40593	88296.57809	2644.86877
0.40481	88219.62700	2643.86877
0.40370	88142.81182	2642.86877
0.40259	88066.13196	2641.86877
0.40149	87989.58683	2640.86877
0.40038	87913.17583	2639.86877
0.39929	87836.89838	2638.86877
0.39819	87760.75389	2637.86877
0.39710	87684.74177	2636.86877
0.39601	87608.86144	2635.86877
0.39493	87533.11233	2634.86877
0.39384	87457.49387	2633.86877
0.39277	87382.00549	2632.86877
0.39169	87306.64661	2631.86877
0.39062	87231.41667	2630.86877
0.38955	87156.31511	2629.86877
0.38848	87081.34138	2628.86877
0.38742	87006.49491	2627.86877
0.38636	86931.77515	2626.86877
0.38530	86857.18156	2625.86877
0.38425	86782.71358	2624.86877
0.38320	86708.37067	2623.86877
0.38215	86634.15229	2622.86877
0.38110	86560.05791	2621.86877
0.38006	86486.08698	2620.86877
0.37902	86412.23897	2619.86877
0.37799	86338.51335	2618.86877
0.37696	86264.90960	2617.86877
0.37593	86191.42718	2616.86877
0.37490	86118.06559	2615.86877
0.37387	86044.82429	2614.86877
0.37285	85971.70277	2613.86877
0.37184	85898.70052	2612.86877
0.37082	85825.81703	2611.86877
0.36981	85753.05178	2610.86877
0.36880	85680.40427	2609.86877
0.36779	85607.87400	2608.86877
0.36679	85535.46046	2607.86877
0.36579	85463.16317	2606.86877
0.36479	85390.98161	2605.86877
0.36380	85318.91530	2604.86877
0.36280	85246.96375	2603.86877
0.36181	85175.12647	2602.86877
0.36083	85103.40297	2601.86877
0.35984	85031.79277	2600.86877
0.35886	84960.29539	2599.86877
0.35788	84888.91035	2598.86877
0.35691	84817.63718	2597.86877
0.35594	84746.47540	2596.86877
0.35496	84675.42453	2595.86877
0.35400	84604.48412	2594.86877
0.35303	84533.65369	2593.86877
0.35207	84462.93278	2592.86877
0.35111	84392.32092	2591.86877
0.35015	84321.81767	2590.86877
0.34920	84251.42256	2589.86877
0.34825	84181.13513	2588.86877
0.34730	84110.95494	2587.86877
0.34635	84040.88154	2586.86877
0.34541	83970.91446	2585.86877
0.34447	83901.05328	2584.86877
0.34353	83831.29755	2583.86877
0.34259	83761.64682	2582.86877
0.34166	83692.10065	2581.86877
0.34073	83622.65862	2580.86877
0.33980	83553.32028	2579.86877
0.33887	83484.08520	2578.86877
0.33795	83414.95295	2577.86877
0.33703	83345.92310	2576.86877
0.33611	83276.99523	2575.86877
0.33520	83208.16891	2574.86877
0.33428	83139.44372	2573.86877
0.33337	83070.81925	2572.86877
0.33246	83002.29506	2571.86877
0.33156	82933.87075	2570.86877
0.33065	82865.54590	2569.86877
0.32975	82797.32011	2568.86877
0.32885	82729.19295	2567.86877
0.32796	82661.16403	2566.86877
0.32706	82593.23294	2565.86877
0.32617	82525.39927	2564.86877
0.32528	82457.66262	2563.86877
0.32439	82390.02260	2562.86877
0.32351	82322.47879	2561.86877
0.32263	82255.03082	2560.86877
0.32175	82187.67828	2559.86877
0.32087	82120.42079	2558.86877
0.31999	82053.25794	2557.86877
0.31912	81986.18936	2556.86877
0.31825	81919.21466	2555.86877
0.31738	81852.33345	2554.86877
0.31651	81785.54535	2553.86877
0.31565	81718.84998	2552.86877
0.31479	81652.24696	2551.86877
0.31393	81585.73591	2550.86877
0.31307	81519.31646	2549.86877
0.31221	81452.98823	2548.86877
0.31136	81386.75086	2547.86877
0.31051	81320.60397	2546.86877
0.30966	81254.54719	2545.86877
0.30881	81188.58015	2544.86877
0.30797	81122.70250	2543.86877
0.30713	81056.91387	2542.86877
0.30629	80991.21390	2541.86877
0.30545	80925.60223	2540.86877
0.30461	80860.07849	2539.86877
0.30378	80794.64234	2538.86877
0.30295	80729.29342	2537.86877
0.30212	80664.03137	2536.86877
0.30129	80598.85585	2535.86877
0.30047	80533.76651	2534.86877
0.29964	80468.76299	2533.86877
0.29882	80403.84496	2532.86877
0.29800	80339.01206	2531.86877
0.29719	80274.26396	2530.86877
0.29637	80209.60030	2529.86877
0.29556	80145.02076	2528.86877
0.29475	80080.52500	2527.86877
0.29394	80016.11267	2526.86877
0.29313	79951.78344	2525.86877
0.29233	79887.53698	2524.86877
0.29152	79823.37295	2523.86877
0.29072	79759.29104	2522.86877
0.28992	79695.29089	2521.86877
0.28912	79631.37220	2520.86877
0.28833	79567.53463	2519.86877
0.28754	79503.77786	2518.86877
0.28674	79440.10156	2517.86877
0.28595	79376.50542	2516.86877
0.28517	79312.98911	2515.86877
0.28438	79249.55231	2514.86877
0.28360	79186.19471	2513.86877
0.28282	79122.91600	2512.86877
0.28204	79059.71585	2511.86877
0.28126	78996.59395	2510.86877
0.28048	78933.55000	2509.86877
0.27971	78870.58368	2508.86877
0.27893	78807.69469	2507.86877
0.27816	78744.88271	2506.86877
0.27739	78682.14744	2505.86877
0.27663	78619.48858	2504.86877
0.27586	78556.90581	2503.86877
0.27510	78494.39885	2502.86877
0.27434	78431.96739	2501.86877
0.27358	78369.61113	2500.86877
0.27282	78307.32978	2499.86877
0.27206	78245.12303	2498.86877
0.27131	78182.99059	2497.86877
0.27055	78120.93216	2496.86877
0.26980	78058.94746	2495.86877
0.26905	77997.03620	2494.86877
0.26830	77935.19807	2493.86877
0.26756	77873.43280	2492.86877
0.26681	77811.74009	2491.86877
0.26607	77750.11966	2490.86877
0.26533	77688.57123	2489.86877
0.26459	77627.09451	2488.86877
0.26385	77565.68921	2487.86877
0.26312	77504.35506	2486.86877
0.26238	77443.09177	2485.86877
0.26165	77381.89907	2484.86877
0.26092	77320.77668	2483.86877
0.26019	77259.72432	2482.86877
0.25946	77198.74171	2481.86877
0.25874	77137.82859	2480.86877
0.25801	77076.98467	2479.86877
0.25729	77016.20969	2478.86877
0.25657	76955.50337	2477.86877
0.25585	76894.86545	2476.86877
0.25513	76834.29566	2475.86877
0.25441	76773.79372	2474.86877
0.25370	76713.35937	2473.86877
0.25299	76652.99235	2472.86877
0.25227	76592.69239	2471.86877
0.25156	76532.45923	2470.86877
0.25086	76472.29260	2469.86877
0.25015	76412.19225	2468.86877
0.24944	76352.15792	2467.86877
0.24874	76292.18934	2466.86877
0.24804	76232.28626	2465.86877
0.24733	76172.44842	2464.86877
0.24664	76112.67556	2463.86877
0.24594	76052.96743	2462.86877
0.24524	75993.32378	2461.86877
0.24455	75933.74436	2460.86877
0.24385	75874.22890	2459.86877
0.24316	75814.77716	2458.86877
0.24247	75755.38890	2457.86877
0.24178	75696.06385	2456.86877
0.24109	75636.80178	2455.86877
0.24040	75577.60243	2454.86877
0.23972	75518.46557	2453.86877
0.23904	75459.39093	2452.86877
0.23835	75400.37829	2451.86877
0.23767	75341.42740	2450.86877
0.23699	75282.53801	2449.86877
0.23632	75223.70988	2448.86877
0.23564	75164.94278	2447.86877
0.23496	75106.23645	2446.86877
0.23429	75047.59068	2445.86877
0.23362	74989.00520	2444.86877
0.23295	74930.47980	2443.86877
0.23228	74872.01423	2442.86877
0.23161	74813.60826	2441.86877
0.23094	74755.26164	2440.86877
0.23027	74696.97416	2439.86877
0.22961	74638.74558	2438.86877
0.22895	74580.57566	2437.86877
0.22828	74522.46417	2436.86877
0.22762	74464.41088	2435.86877
0.22696	74406.41557	2434.86877
0.22631	74348.47800	2433.86877
0.22565	74290.59794	2432.86877
0.22499	74232.77518	2431.86877
0.22434	74175.00948	2430.86877
0.22369	74117.30061	2429.86877
0.22304	74059.64835	2428.86877
0.22238	74002.05249	2427.86877
0.22174	73944.51278	2426.86877
0.22109	73887.02902	2425.86877
0.22044	73829.60098	2424.86877
0.21979	73772.22843	2423.86877
0.21915	73714.91116	2422.86877
0.21851	73657.64895	2421.86877
0.21787	73600.44157	2420.86877
0.21722	73543.28881	2419.86877
0.21658	73486.19046	2418.86877
0.21595	73429.14629	2417.86877
0.21531	73372.15608	2416.86877
0.21467	73315.21963	2415.86877
0.21404	73258.33671	2414.86877
0.21340	73201.50712	2413.86877
0.21277	73144.73063	2412.86877
0.21214	73088.00703	2411.86877
0.21151	73031.33612	2410.86877
0.21088	72974.71767	2409.86877
0.21025	72918.15148	2408.86877
0.20962	72861.63734	2407.86877
0.20900	72805.17503	2406.86877
0.20837	72748.76434	2405.86877
0.20775	72692.40507	2404.86877
0.20713	72636.09701	2403.86877
0.20650	72579.83995	2402.86877
0.20588	72523.63367	2401.86877
0.20526	72467.47798	2400.86877
0.20465	72411.37267	2399.86877
0.20403	72355.31752	2398.86877
0.20341	72299.31234	2397.86877
0.20280	72243.35692	2396.86877
0.20218	72187.45105	2395.86877
0.20157	72131.59453	2394.86877
0.20096	72075.78716	2393.86877
0.20034	72020.02873	2392.86877
0.19973	71964.31903	2391.86877
0.19912	71908.65787	2390.86877
0.19852	71853.04505	2389.86877
0.19791	71797.48035	2388.86877
0.19730	71741.96358	2387.86877
0.19670	71686.49455	2386.86877
0.19609	71631.07304	2385.86877
0.19549	71575.69885	2384.86877
0.19488	71520.37180	2383.86877
0.19428	71465.09167	2382.86877
0.19368	71409.85826	2381.86877
0.19308	71354.67139	2380.86877
0.19248	71299.53085	2379.86877
0.19188	71244.43643	2378.86877
0.19129	71189.38795	2377.86877
0.19069	71134.38520	2376.86877
0.19010	71079.42799	2375.86877
0.18950	71024.51612	2374.86877
0.18891	70969.64939	2373.86877
0.18831	70914.82760	2372.86877
0.18772	70860.05056	2371.86877
0.18713	70805.31807	2370.86877
0.18654	70750.62993	2369.86877
0.18595	70695.98595	2368.86877
0.18536	70641.38594	2367.86877
0.18477	70586.82968	2366.86877
0.18419	70532.31700	2365.86877
0.18360	70477.84769	2364.86877
0.18302	70423.42156	2363.86877
0.18243	70369.03840	2362.86877
0.18185	70314.69804	2361.86877
0.18126	70260.40026	2360.86877
0.18068	70206.14488	2359.86877
0.18010	70151.93169	2358.86877
0.17952	70097.76051	2357.86877
0.17894	70043.63114	2356.86877
0.17836	69989.54338	2355.86877
0.17778	69935.49704	2354.86877
0.17720	69881.49191	2353.86877
0.17663	69827.52782	2352.86877
0.17605	69773.60455	2351.86877
0.17547	69719.72191	2350.86877
0.17490	69665.87971	2349.86877
0.17432	69612.07775	2348.86877
0.17375	69558.31584	2347.86877
0.17318	69504.59377	2346.86877
0.17260	69450.91136	2345.86877
0.17203	69397.26840	2344.86877
0.17146	69343.66469	2343.86877
0.17089	69290.10005	2342.86877
0.17032	69236.57427	2341.86877
0.16975	69183.08715	2340.86877
0.16918	69129.63849	2339.86877
0.16861	69076.22810	2338.86877
0.16805	69022.85578	2337.86877
0.16748	68969.52133	2336.86877
0.16691	68916.22455	2335.86877
0.16635	68862.96523	2334.86877
0.16578	68809.74318	2333.86877
0.16522	68756.55820	2332.86877
0.16465	68703.41008	2331.86877
0.16409	68650.29862	2330.86877
0.16353	68597.22362	2329.86877
0.16297	68544.18488	2328.86877
0.16240	68491.18218	2327.86877
0.16184	68438.21534	2326.86877
0.16128	68385.28414	2325.86877
0.16072	68332.38837	2324.86877
0.16016	68279.52784	2323.86877
0.15960	68226.70232	2322.86877
0.15904	68173.91162	2321.86877
0.15848	68121.15553	2320.86877
0.15793	68068.43383	2319.86877
0.15737	68015.74631	2318.86877
0.15681	67963.09277	2317.86877
0.15625	67910.47299	2316.86877
0.15570	67857.88676	2315.86877
0.15514	67805.33386	2314.86877
0.15459	67752.81408	2313.86877
0.15403	67700.32719	2312.86877
0.15348	67647.87300	2311.86877
0.15292	67595.45126	2310.86877
0.15237	67543.06177	2309.86877
0.15181	67490.70431	2308.86877
0.15126	67438.37864	2307.86877
0.15071	67386.08455	2306.86877
0.15015	67333.82181	2305.86877
0.14960	67281.59020	2304.86877
0.14905	67229.38949	2303.86877
0.14850	67177.21944	2302.86877
0.14794	67125.07983	2301.86877
0.14739	67072.97042	2300.86877
0.14684	67020.89098	2299.86877
0.14629	66968.84128	2298.86877
0.14574	66916.82107	2297.86877
0.14519	66864.83012	2296.86877
0.14464	66812.86818	2295.86877
0.14409	66760.93502	2294.86877
0.14354	66709.03038	2293.86877
