Mole fraction of liquid	Heat per mole [J]	Temperature [K]
1.00000	1.22463E5	2948.14918
0.99998	1.22459E5	2948.05355
0.99658	1.22286E5	2947.05355
0.99319	1.22114E5	2946.05355
0.98982	1.21943E5	2945.05355
0.98646	1.21772E5	2944.05355
0.98312	1.21602E5	2943.05355
0.97980	1.21432E5	2942.05355
0.97648	1.21264E5	2941.05355
0.97319	1.21095E5	2940.05355
0.96990	1.20928E5	2939.05355
0.96664	1.20761E5	2938.05355
0.96338	1.20595E5	2937.05355
0.96014	1.20429E5	2936.05355
0.95692	1.20264E5	2935.05355
0.95371	1.20099E5	2934.05355
0.95051	1.19935E5	2933.05355
0.94733	1.19772E5	2932.05355
0.94416	1.19609E5	2931.05355
0.94101	1.19447E5	2930.05355
0.93787	1.19286E5	2929.05355
0.93474	1.19125E5	2928.05355
0.93163	1.18965E5	2927.05355
0.92853	1.18805E5	2926.05355
0.92544	1.18646E5	2925.05355
0.92237	1.18487E5	2924.05355
0.91931	1.18329E5	2923.05355
0.91627	1.18172E5	2922.05355
0.91323	1.18015E5	2921.05355
0.91021	1.17858E5	2920.05355
0.90721	1.17702E5	2919.05355
0.90421	1.17547E5	2918.05355
0.90123	1.17392E5	2917.05355
0.89827	1.17238E5	2916.05355
0.89531	1.17085E5	2915.05355
0.89237	1.16932E5	2914.05355
0.88944	1.16779E5	2913.05355
0.88652	1.16627E5	2912.05355
0.88362	1.16475E5	2911.05355
0.88073	1.16324E5	2910.05355
0.87785	1.16174E5	2909.05355
0.87498	1.16024E5	2908.05355
0.87212	1.15875E5	2907.05355
0.86928	1.15726E5	2906.05355
0.86645	1.15577E5	2905.05355
0.86363	1.15430E5	2904.05355
0.86082	1.15282E5	2903.05355
0.85803	1.15135E5	2902.05355
0.85524	1.14989E5	2901.05355
0.85247	1.14843E5	2900.05355
0.84971	1.14698E5	2899.05355
0.84696	1.14553E5	2898.05355
0.84423	1.14408E5	2897.05355
0.84150	1.14264E5	2896.05355
0.83879	1.14121E5	2895.05355
0.83608	1.13978E5	2894.05355
0.83339	1.13835E5	2893.05355
0.83071	1.13693E5	2892.05355
0.82804	1.13552E5	2891.05355
0.82538	1.13411E5	2890.05355
0.82274	1.13270E5	2889.05355
0.82010	1.13130E5	2888.05355
0.81748	1.12990E5	2887.05355
0.81486	1.12851E5	2886.05355
0.81226	1.12712E5	2885.05355
0.80967	1.12574E5	2884.05355
0.80708	1.12436E5	2883.05355
0.80451	1.12299E5	2882.05355
0.80195	1.12162E5	2881.05355
0.79940	1.12025E5	2880.05355
0.79686	1.11889E5	2879.05355
0.79433	1.11753E5	2878.05355
0.79181	1.11618E5	2877.05355
0.78930	1.11483E5	2876.05355
0.78680	1.11349E5	2875.05355
0.78432	1.11215E5	2874.05355
0.78184	1.11082E5	2873.05355
0.77937	1.10948E5	2872.05355
0.77691	1.10816E5	2871.05355
0.77446	1.10684E5	2870.05355
0.77202	1.10552E5	2869.05355
0.76959	1.10420E5	2868.05355
0.76718	1.10289E5	2867.05355
0.76477	1.10159E5	2866.05355
0.76237	1.10028E5	2865.05355
0.75998	1.09899E5	2864.05355
0.75760	1.09769E5	2863.05355
0.75523	1.09640E5	2862.05355
0.75286	1.09512E5	2861.05355
0.75051	1.09383E5	2860.05355
0.74817	1.09256E5	2859.05355
0.74584	1.09128E5	2858.05355
0.74351	1.09001E5	2857.05355
0.74120	1.08874E5	2856.05355
0.73889	1.08748E5	2855.05355
0.73660	1.08622E5	2854.05355
0.73431	1.08497E5	2853.05355
0.73203	1.08372E5	2852.05355
0.72976	1.08247E5	2851.05355
0.72750	1.08123E5	2850.05355
0.72525	1.07999E5	2849.05355
0.72301	1.07875E5	2848.05355
0.72077	1.07752E5	2847.05355
0.71855	1.07629E5	2846.05355
0.71633	1.07506E5	2845.05355
0.71413	1.07384E5	2844.05355
0.71193	1.07262E5	2843.05355
0.70974	1.07141E5	2842.05355
0.70755	1.07020E5	2841.05355
0.70538	1.06899E5	2840.05355
0.70322	1.06778E5	2839.05355
0.70106	1.06658E5	2838.05355
0.69891	1.06539E5	2837.05355
0.69677	1.06419E5	2836.05355
0.69464	1.06300E5	2835.05355
0.69252	1.06182E5	2834.05355
0.69040	1.06063E5	2833.05355
0.68829	1.05945E5	2832.05355
0.68619	1.05828E5	2831.05355
0.68410	1.05710E5	2830.05355
0.68202	1.05593E5	2829.05355
0.67995	1.05477E5	2828.05355
0.67788	1.05360E5	2827.05355
0.67582	1.05244E5	2826.05355
0.67377	1.05129E5	2825.05355
0.67172	1.05013E5	2824.05355
0.66969	1.04898E5	2823.05355
0.66766	1.04784E5	2822.05355
0.66564	1.04669E5	2821.05355
0.66363	1.04555E5	2820.05355
0.66162	1.04442E5	2819.05355
0.65963	1.04328E5	2818.05355
0.65764	1.04215E5	2817.05355
0.65565	1.04102E5	2816.05355
0.65368	1.03990E5	2815.05355
0.65171	1.03878E5	2814.05355
0.64975	1.03766E5	2813.05355
0.64780	1.03654E5	2812.05355
0.64585	1.03543E5	2811.05355
0.64391	1.03432E5	2810.05355
0.64198	1.03321E5	2809.05355
0.64006	1.03211E5	2808.05355
0.63814	1.03101E5	2807.05355
0.63623	1.02991E5	2806.05355
0.63433	1.02881E5	2805.05355
0.63244	1.02772E5	2804.05355
0.63055	1.02663E5	2803.05355
0.62867	1.02555E5	2802.05355
0.62679	1.02446E5	2801.05355
0.62493	1.02338E5	2800.05355
0.62306	1.02231E5	2799.05355
0.62121	1.02123E5	2798.05355
0.61936	1.02016E5	2797.05355
0.61752	1.01909E5	2796.05355
0.61569	1.01803E5	2795.05355
0.61386	1.01696E5	2794.05355
0.61204	1.01590E5	2793.05355
0.61023	1.01484E5	2792.05355
0.60842	1.01379E5	2791.05355
0.60662	1.01274E5	2790.05355
0.60483	1.01169E5	2789.05355
0.60304	1.01064E5	2788.05355
0.60126	1.00959E5	2787.05355
0.59949	1.00855E5	2786.05355
0.59772	1.00751E5	2785.05355
0.59596	1.00648E5	2784.05355
0.59420	1.00544E5	2783.05355
0.59246	1.00441E5	2782.05355
0.59071	1.00338E5	2781.05355
0.58898	1.00236E5	2780.05355
0.58725	1.00133E5	2779.05355
0.58552	1.00031E5	2778.05355
0.58381	99929.38711	2777.05355
0.58210	99827.80200	2776.05355
0.58039	99726.46894	2775.05355
0.57869	99625.38664	2774.05355
0.57700	99524.55385	2773.05355
0.57531	99423.96932	2772.05355
0.57363	99323.63181	2771.05355
0.57196	99223.54007	2770.05355
0.57029	99123.69288	2769.05355
0.56862	99024.08902	2768.05355
0.56697	98924.72726	2767.05355
0.56531	98825.60641	2766.05355
0.56367	98726.72527	2765.05355
0.56203	98628.08264	2764.05355
0.56040	98529.67733	2763.05355
0.55877	98431.50817	2762.05355
0.55714	98333.57399	2761.05355
0.55553	98235.87363	2760.05355
0.55392	98138.40591	2759.05355
0.55231	98041.16971	2758.05355
0.55071	97944.16386	2757.05355
0.54912	97847.38724	2756.05355
0.54753	97750.83872	2755.05355
0.54594	97654.51717	2754.05355
0.54437	97558.42147	2753.05355
0.54279	97462.55052	2752.05355
0.54123	97366.90321	2751.05355
0.53967	97271.47845	2750.05355
0.53811	97176.27515	2749.05355
0.53656	97081.29221	2748.05355
0.53501	96986.52858	2747.05355
0.53347	96891.98316	2746.05355
0.53194	96797.65491	2745.05355
0.53041	96703.54276	2744.05355
0.52888	96609.64565	2743.05355
0.52736	96515.96255	2742.05355
0.52585	96422.49241	2741.05355
0.52434	96329.23421	2740.05355
0.52284	96236.18690	2739.05355
0.52134	96143.34948	2738.05355
0.51985	96050.72091	2737.05355
0.51836	95958.30021	2736.05355
0.51688	95866.08636	2735.05355
0.51540	95774.07836	2734.05355
0.51392	95682.27522	2733.05355
0.51246	95590.67595	2732.05355
0.51099	95499.27958	2731.05355
0.50953	95408.08514	2730.05355
0.50808	95317.09164	2729.05355
0.50663	95226.29812	2728.05355
0.50519	95135.70364	2727.05355
0.50375	95045.30723	2726.05355
0.50232	94955.10796	2725.05355
0.50089	94865.10486	2724.05355
0.49946	94775.29703	2723.05355
0.49804	94685.68351	2722.05355
0.49663	94596.26339	2721.05355
0.49522	94507.03574	2720.05355
0.49381	94417.99966	2719.05355
0.49241	94329.15422	2718.05355
0.49101	94240.49854	2717.05355
0.48962	94152.03170	2716.05355
0.48823	94063.75281	2715.05355
0.48685	93975.66099	2714.05355
0.48547	93887.75536	2713.05355
0.48410	93800.03502	2712.05355
0.48273	93712.49912	2711.05355
0.48137	93625.14677	2710.05355
0.48001	93537.97712	2709.05355
0.47865	93450.98931	2708.05355
0.47730	93364.18249	2707.05355
0.47595	93277.55580	2706.05355
0.47461	93191.10840	2705.05355
0.47327	93104.83944	2704.05355
0.47194	93018.74811	2703.05355
0.47061	92932.83356	2702.05355
0.46929	92847.09497	2701.05355
0.46797	92761.53152	2700.05355
0.46665	92676.14240	2699.05355
0.46534	92590.92678	2698.05355
0.46403	92505.88387	2697.05355
0.46273	92421.01286	2696.05355
0.46143	92336.31296	2695.05355
0.46013	92251.78337	2694.05355
0.45884	92167.42330	2693.05355
0.45755	92083.23197	2692.05355
0.45627	91999.20859	2691.05355
0.45499	91915.35239	2690.05355
0.45372	91831.66261	2689.05355
0.45245	91748.13846	2688.05355
0.45118	91664.77919	2687.05355
0.44992	91581.58405	2686.05355
0.44866	91498.55227	2685.05355
0.44740	91415.68310	2684.05355
0.44615	91332.97580	2683.05355
0.44491	91250.42963	2682.05355
0.44366	91168.04385	2681.05355
0.44243	91085.81773	2680.05355
0.44119	91003.75052	2679.05355
0.43996	90921.84152	2678.05355
0.43873	90840.08999	2677.05355
0.43751	90758.49523	2676.05355
0.43629	90677.05650	2675.05355
0.43507	90595.77312	2674.05355
0.43386	90514.64436	2673.05355
0.43265	90433.66952	2672.05355
0.43145	90352.84792	2671.05355
0.43025	90272.17885	2670.05355
0.42905	90191.66162	2669.05355
0.42786	90111.29555	2668.05355
0.42667	90031.07995	2667.05355
0.42548	89951.01415	2666.05355
0.42430	89871.09746	2665.05355
0.42312	89791.32921	2664.05355
0.42195	89711.70874	2663.05355
0.42078	89632.23538	2662.05355
0.41961	89552.90848	2661.05355
0.41845	89473.72736	2660.05355
0.41729	89394.69138	2659.05355
0.41613	89315.79989	2658.05355
0.41497	89237.05224	2657.05355
0.41382	89158.44778	2656.05355
0.41268	89079.98588	2655.05355
0.41154	89001.66590	2654.05355
0.41040	88923.48721	2653.05355
0.40926	88845.44917	2652.05355
0.40813	88767.55116	2651.05355
0.40700	88689.79256	2650.05355
0.40587	88612.17274	2649.05355
0.40475	88534.69110	2648.05355
0.40363	88457.34701	2647.05355
0.40252	88380.13986	2646.05355
0.40140	88303.06906	2645.05355
0.40030	88226.13399	2644.05355
0.39919	88149.33406	2643.05355
0.39809	88072.66867	2642.05355
0.39699	87996.13722	2641.05355
0.39589	87919.73913	2640.05355
0.39480	87843.47380	2639.05355
0.39371	87767.34065	2638.05355
0.39263	87691.33911	2637.05355
0.39154	87615.46858	2636.05355
0.39046	87539.72851	2635.05355
0.38939	87464.11830	2634.05355
0.38831	87388.63741	2633.05355
0.38724	87313.28525	2632.05355
0.38618	87238.06126	2631.05355
0.38511	87162.96490	2630.05355
0.38405	87087.99559	2629.05355
0.38300	87013.15278	2628.05355
0.38194	86938.43592	2627.05355
0.38089	86863.84447	2626.05355
0.37984	86789.37787	2625.05355
0.37880	86715.03559	2624.05355
0.37775	86640.81708	2623.05355
0.37671	86566.72180	2622.05355
0.37568	86492.74923	2621.05355
0.37465	86418.89883	2620.05355
0.37362	86345.17007	2619.05355
0.37259	86271.56243	2618.05355
0.37156	86198.07537	2617.05355
0.37054	86124.70839	2616.05355
0.36952	86051.46095	2615.05355
0.36851	85978.33256	2614.05355
0.36750	85905.32268	2613.05355
0.36649	85832.43082	2612.05355
0.36548	85759.65647	2611.05355
0.36448	85686.99912	2610.05355
0.36348	85614.45826	2609.05355
0.36248	85542.03341	2608.05355
0.36148	85469.72405	2607.05355
0.36049	85397.52970	2606.05355
0.35950	85325.44987	2605.05355
0.35851	85253.48406	2604.05355
0.35753	85181.63179	2603.05355
0.35655	85109.89257	2602.05355
0.35557	85038.26593	2601.05355
0.35459	84966.75137	2600.05355
0.35362	84895.34843	2599.05355
0.35265	84824.05663	2598.05355
0.35168	84752.87549	2597.05355
0.35072	84681.80455	2596.05355
0.34976	84610.84334	2595.05355
0.34880	84539.99139	2594.05355
0.34784	84469.24824	2593.05355
0.34688	84398.61344	2592.05355
0.34593	84328.08651	2591.05355
0.34498	84257.66701	2590.05355
0.34404	84187.35448	2589.05355
0.34309	84117.14847	2588.05355
0.34215	84047.04853	2587.05355
0.34121	83977.05421	2586.05355
0.34028	83907.16507	2585.05355
0.33934	83837.38067	2584.05355
0.33841	83767.70056	2583.05355
0.33749	83698.12432	2582.05355
0.33656	83628.65149	2581.05355
0.33564	83559.28165	2580.05355
0.33472	83490.01437	2579.05355
0.33380	83420.84922	2578.05355
0.33288	83351.78577	2577.05355
0.33197	83282.82359	2576.05355
0.33106	83213.96226	2575.05355
0.33015	83145.20136	2574.05355
0.32924	83076.54048	2573.05355
0.32834	83007.97919	2572.05355
0.32744	82939.51707	2571.05355
0.32654	82871.15373	2570.05355
0.32564	82802.88874	2569.05355
0.32475	82734.72170	2568.05355
0.32386	82666.65219	2567.05355
0.32297	82598.67983	2566.05355
0.32208	82530.80419	2565.05355
0.32120	82463.02489	2564.05355
0.32032	82395.34152	2563.05355
0.31944	82327.75369	2562.05355
0.31856	82260.26100	2561.05355
0.31768	82192.86305	2560.05355
0.31681	82125.55946	2559.05355
0.31594	82058.34984	2558.05355
0.31507	81991.23380	2557.05355
0.31421	81924.21095	2556.05355
0.31334	81857.28092	2555.05355
0.31248	81790.44331	2554.05355
0.31162	81723.69775	2553.05355
0.31076	81657.04386	2552.05355
0.30991	81590.48126	2551.05355
0.30906	81524.00958	2550.05355
0.30821	81457.62845	2549.05355
0.30736	81391.33750	2548.05355
0.30651	81325.13635	2547.05355
0.30567	81259.02464	2546.05355
0.30483	81193.00200	2545.05355
0.30399	81127.06807	2544.05355
0.30315	81061.22248	2543.05355
0.30231	80995.46489	2542.05355
0.30148	80929.79492	2541.05355
0.30065	80864.21221	2540.05355
0.29982	80798.71643	2539.05355
0.29899	80733.30720	2538.05355
0.29817	80667.98418	2537.05355
0.29734	80602.74702	2536.05355
0.29652	80537.59536	2535.05355
0.29571	80472.52887	2534.05355
0.29489	80407.54719	2533.05355
0.29407	80342.64999	2532.05355
0.29326	80277.83691	2531.05355
0.29245	80213.10762	2530.05355
0.29164	80148.46178	2529.05355
0.29084	80083.89906	2528.05355
0.29003	80019.41910	2527.05355
0.28923	79955.02159	2526.05355
0.28843	79890.70619	2525.05355
0.28763	79826.47256	2524.05355
0.28683	79762.32037	2523.05355
0.28604	79698.24931	2522.05355
0.28525	79634.25903	2521.05355
0.28446	79570.34922	2520.05355
0.28367	79506.51955	2519.05355
0.28288	79442.76969	2518.05355
0.28209	79379.09934	2517.05355
0.28131	79315.50816	2516.05355
0.28053	79251.99584	2515.05355
0.27975	79188.56207	2514.05355
0.27897	79125.20652	2513.05355
0.27820	79061.92888	2512.05355
0.27742	78998.72885	2511.05355
0.27665	78935.60610	2510.05355
0.27588	78872.56034	2509.05355
0.27511	78809.59124	2508.05355
0.27435	78746.69851	2507.05355
0.27358	78683.88184	2506.05355
0.27282	78621.14093	2505.05355
0.27206	78558.47547	2504.05355
0.27130	78495.88515	2503.05355
0.27054	78433.36969	2502.05355
0.26979	78370.92878	2501.05355
0.26903	78308.56212	2500.05355
0.26828	78246.26942	2499.05355
0.26753	78184.05038	2498.05355
0.26678	78121.90471	2497.05355
0.26603	78059.83212	2496.05355
0.26529	77997.83231	2495.05355
0.26454	77935.90500	2494.05355
0.26380	77874.04989	2493.05355
0.26306	77812.26670	2492.05355
0.26232	77750.55515	2491.05355
0.26159	77688.91494	2490.05355
0.26085	77627.34579	2489.05355
0.26012	77565.84743	2488.05355
0.25939	77504.41957	2487.05355
0.25866	77443.06192	2486.05355
0.25793	77381.77422	2485.05355
0.25720	77320.55618	2484.05355
0.25648	77259.40753	2483.05355
0.25575	77198.32799	2482.05355
0.25503	77137.31728	2481.05355
0.25431	77076.37514	2480.05355
0.25359	77015.50129	2479.05355
0.25287	76954.69546	2478.05355
0.25216	76893.95738	2477.05355
0.25145	76833.28678	2476.05355
0.25073	76772.68339	2475.05355
0.25002	76712.14695	2474.05355
0.24931	76651.67720	2473.05355
0.24860	76591.27386	2472.05355
0.24790	76530.93668	2471.05355
0.24719	76470.66539	2470.05355
0.24649	76410.45973	2469.05355
0.24579	76350.31944	2468.05355
0.24509	76290.24427	2467.05355
0.24439	76230.23394	2466.05355
0.24369	76170.28822	2465.05355
0.24300	76110.40683	2464.05355
0.24230	76050.58953	2463.05355
0.24161	75990.83606	2462.05355
0.24092	75931.14617	2461.05355
0.24023	75871.51961	2460.05355
0.23954	75811.95612	2459.05355
0.23885	75752.45546	2458.05355
0.23817	75693.01737	2457.05355
0.23748	75633.64161	2456.05355
0.23680	75574.32793	2455.05355
0.23612	75515.07609	2454.05355
0.23544	75455.88583	2453.05355
0.23476	75396.75692	2452.05355
0.23409	75337.68910	2451.05355
0.23341	75278.68215	2450.05355
0.23274	75219.73581	2449.05355
0.23206	75160.84985	2448.05355
0.23139	75102.02402	2447.05355
0.23072	75043.25809	2446.05355
0.23005	74984.55181	2445.05355
0.22938	74925.90496	2444.05355
0.22872	74867.31728	2443.05355
0.22805	74808.78856	2442.05355
0.22739	74750.31855	2441.05355
0.22673	74691.90701	2440.05355
0.22607	74633.55372	2439.05355
0.22541	74575.25845	2438.05355
0.22475	74517.02095	2437.05355
0.22409	74458.84100	2436.05355
0.22344	74400.71838	2435.05355
0.22278	74342.65284	2434.05355
0.22213	74284.64417	2433.05355
0.22148	74226.69213	2432.05355
0.22083	74168.79649	2431.05355
0.22018	74110.95704	2430.05355
0.21953	74053.17354	2429.05355
0.21888	73995.44577	2428.05355
0.21823	73937.77350	2427.05355
0.21759	73880.15652	2426.05355
0.21695	73822.59460	2425.05355
0.21630	73765.08751	2424.05355
0.21566	73707.63504	2423.05355
0.21502	73650.23697	2422.05355
0.21439	73592.89307	2421.05355
0.21375	73535.60312	2420.05355
0.21311	73478.36691	2419.05355
0.21248	73421.18422	2418.05355
0.21184	73364.05483	2417.05355
0.21121	73306.97852	2416.05355
0.21058	73249.95508	2415.05355
0.20995	73192.98430	2414.05355
0.20932	73136.06595	2413.05355
0.20869	73079.19982	2412.05355
0.20806	73022.38570	2411.05355
0.20744	72965.62338	2410.05355
0.20681	72908.91263	2409.05355
0.20619	72852.25326	2408.05355
0.20556	72795.64505	2407.05355
0.20494	72739.08778	2406.05355
0.20432	72682.58125	2405.05355
0.20370	72626.12525	2404.05355
0.20308	72569.71956	2403.05355
0.20247	72513.36398	2402.05355
0.20185	72457.05829	2401.05355
0.20123	72400.80230	2400.05355
0.20062	72344.59580	2399.05355
0.20001	72288.43856	2398.05355
0.19939	72232.33040	2397.05355
0.19878	72176.27110	2396.05355
0.19817	72120.26045	2395.05355
0.19756	72064.29825	2394.05355
0.19695	72008.38430	2393.05355
0.19635	71952.51840	2392.05355
0.19574	71896.70032	2391.05355
0.19514	71840.92988	2390.05355
0.19453	71785.20687	2389.05355
0.19393	71729.53109	2388.05355
0.19332	71673.90232	2387.05355
0.19272	71618.32038	2386.05355
0.19212	71562.78505	2385.05355
0.19152	71507.29614	2384.05355
0.19092	71451.85345	2383.05355
0.19033	71396.45676	2382.05355
0.18973	71341.10589	2381.05355
0.18913	71285.80062	2380.05355
0.18854	71230.54077	2379.05355
0.18794	71175.32613	2378.05355
0.18735	71120.15649	2377.05355
0.18676	71065.03166	2376.05355
0.18616	71009.95145	2375.05355
0.18557	70954.91564	2374.05355
0.18498	70899.92404	2373.05355
0.18439	70844.97645	2372.05355
0.18381	70790.07268	2371.05355
0.18322	70735.21252	2370.05355
0.18263	70680.39577	2369.05355
0.18205	70625.62223	2368.05355
0.18146	70570.89171	2367.05355
0.18088	70516.20401	2366.05355
0.18029	70461.55893	2365.05355
0.17971	70406.95627	2364.05355
0.17913	70352.39583	2363.05355
0.17855	70297.87742	2362.05355
0.17797	70243.40083	2361.05355
0.17739	70188.96586	2360.05355
0.17681	70134.57233	2359.05355
0.17623	70080.22002	2358.05355
0.17565	70025.90875	2357.05355
0.17507	69971.63830	2356.05355
0.17450	69917.40849	2355.05355
0.17392	69863.21912	2354.05355
0.17335	69809.06998	2353.05355
0.17277	69754.96087	2352.05355
0.17220	69700.89160	2351.05355
0.17163	69646.86197	2350.05355
0.17105	69592.87178	2349.05355
0.17048	69538.92082	2348.05355
0.16991	69485.00890	2347.05355
0.16934	69431.13582	2346.05355
0.16877	69377.30137	2345.05355
0.16820	69323.50536	2344.05355
0.16764	69269.74758	2343.05355
0.16707	69216.02783	2342.05355
0.16650	69162.34592	2341.05355
0.16593	69108.70162	2340.05355
0.16537	69055.09475	2339.05355
0.16480	69001.52511	2338.05355
0.16424	68947.99247	2337.05355
0.16367	68894.49665	2336.05355
0.16311	68841.03744	2335.05355
0.16255	68787.61463	2334.05355
0.16199	68734.22802	2333.05355
0.16142	68680.87739	2332.05355
0.16086	68627.56255	2331.05355
0.16030	68574.28328	2330.05355
0.15974	68521.03937	2329.05355
0.15918	68467.83063	2328.05355
0.15862	68414.65682	2327.05355
0.15806	68361.51776	2326.05355
0.15750	68308.41322	2325.05355
0.15695	68255.34299	2324.05355
0.15639	68202.30686	2323.05355
0.15583	68149.30462	2322.05355
0.15527	68096.33604	2321.05355
0.15472	68043.40093	2320.05355
0.15416	67990.49904	2319.05355
0.15361	67937.63018	2318.05355
0.15305	67884.79412	2317.05355
0.15250	67831.99064	2316.05355
0.15194	67779.21951	2315.05355
0.15139	67726.48053	2314.05355
0.15083	67673.77345	2313.05355
0.15028	67621.09807	2312.05355
0.14973	67568.45415	2311.05355
0.14918	67515.84146	2310.05355
0.14862	67463.25978	2309.05355
0.14807	67410.70887	2308.05355
0.14752	67358.18851	2307.05355
0.14697	67305.69846	2306.05355
0.14642	67253.23849	2305.05355
0.14587	67200.80835	2304.05355
0.14532	67148.40782	2303.05355
0.14477	67096.03664	2302.05355
0.14422	67043.69459	2301.05355
0.14367	66991.38141	2300.05355
0.14312	66939.09686	2299.05355
0.14257	66886.84070	2298.05355
0.14202	66834.61267	2297.05355
0.14147	66782.41252	2296.05355
