Mole fraction of liquid	Heat per mole [J]	Temperature [K]
1.00000	1.26880E5	3025.95140
0.99998	1.26875E5	3025.85577
0.99623	1.26684E5	3024.85577
0.99249	1.26493E5	3023.85577
0.98878	1.26303E5	3022.85577
0.98508	1.26113E5	3021.85577
0.98141	1.25925E5	3020.85577
0.97775	1.25737E5	3019.85577
0.97411	1.25551E5	3018.85577
0.97048	1.25365E5	3017.85577
0.96688	1.25179E5	3016.85577
0.96329	1.24995E5	3015.85577
0.95973	1.24811E5	3014.85577
0.95618	1.24628E5	3013.85577
0.95264	1.24446E5	3012.85577
0.94913	1.24265E5	3011.85577
0.94563	1.24084E5	3010.85577
0.94215	1.23904E5	3009.85577
0.93869	1.23725E5	3008.85577
0.93524	1.23547E5	3007.85577
0.93181	1.23369E5	3006.85577
0.92840	1.23192E5	3005.85577
0.92500	1.23016E5	3004.85577
0.92162	1.22841E5	3003.85577
0.91826	1.22666E5	3002.85577
0.91492	1.22492E5	3001.85577
0.91159	1.22318E5	3000.85577
0.90827	1.22146E5	2999.85577
0.90498	1.21974E5	2998.85577
0.90169	1.21803E5	2997.85577
0.89843	1.21632E5	2996.85577
0.89518	1.21462E5	2995.85577
0.89194	1.21293E5	2994.85577
0.88873	1.21125E5	2993.85577
0.88552	1.20957E5	2992.85577
0.88234	1.20790E5	2991.85577
0.87916	1.20623E5	2990.85577
0.87601	1.20457E5	2989.85577
0.87287	1.20292E5	2988.85577
0.86974	1.20128E5	2987.85577
0.86663	1.19964E5	2986.85577
0.86353	1.19800E5	2985.85577
0.86045	1.19638E5	2984.85577
0.85738	1.19476E5	2983.85577
0.85433	1.19314E5	2982.85577
0.85129	1.19154E5	2981.85577
0.84827	1.18994E5	2980.85577
0.84526	1.18834E5	2979.85577
0.84226	1.18675E5	2978.85577
0.83928	1.18517E5	2977.85577
0.83631	1.18359E5	2976.85577
0.83336	1.18202E5	2975.85577
0.83042	1.18046E5	2974.85577
0.82749	1.17890E5	2973.85577
0.82458	1.17735E5	2972.85577
0.82168	1.17580E5	2971.85577
0.81880	1.17426E5	2970.85577
0.81593	1.17272E5	2969.85577
0.81307	1.17119E5	2968.85577
0.81022	1.16967E5	2967.85577
0.80739	1.16815E5	2966.85577
0.80457	1.16664E5	2965.85577
0.80177	1.16513E5	2964.85577
0.79898	1.16363E5	2963.85577
0.79620	1.16213E5	2962.85577
0.79343	1.16064E5	2961.85577
0.79068	1.15916E5	2960.85577
0.78793	1.15768E5	2959.85577
0.78520	1.15620E5	2958.85577
0.78249	1.15474E5	2957.85577
0.77978	1.15327E5	2956.85577
0.77709	1.15181E5	2955.85577
0.77441	1.15036E5	2954.85577
0.77175	1.14891E5	2953.85577
0.76909	1.14747E5	2952.85577
0.76645	1.14603E5	2951.85577
0.76382	1.14460E5	2950.85577
0.76120	1.14317E5	2949.85577
0.75859	1.14175E5	2948.85577
0.75600	1.14034E5	2947.85577
0.75341	1.13892E5	2946.85577
0.75084	1.13752E5	2945.85577
0.74828	1.13611E5	2944.85577
0.74573	1.13472E5	2943.85577
0.74319	1.13333E5	2942.85577
0.74067	1.13194E5	2941.85577
0.73815	1.13056E5	2940.85577
0.73565	1.12918E5	2939.85577
0.73316	1.12781E5	2938.85577
0.73068	1.12644E5	2937.85577
0.72820	1.12507E5	2936.85577
0.72575	1.12371E5	2935.85577
0.72330	1.12236E5	2934.85577
0.72086	1.12101E5	2933.85577
0.71843	1.11967E5	2932.85577
0.71602	1.11833E5	2931.85577
0.71361	1.11699E5	2930.85577
0.71122	1.11566E5	2929.85577
0.70883	1.11433E5	2928.85577
0.70646	1.11301E5	2927.85577
0.70409	1.11169E5	2926.85577
0.70174	1.11038E5	2925.85577
0.69940	1.10907E5	2924.85577
0.69707	1.10776E5	2923.85577
0.69474	1.10646E5	2922.85577
0.69243	1.10517E5	2921.85577
0.69013	1.10388E5	2920.85577
0.68784	1.10259E5	2919.85577
0.68555	1.10130E5	2918.85577
0.68328	1.10003E5	2917.85577
0.68102	1.09875E5	2916.85577
0.67877	1.09748E5	2915.85577
0.67652	1.09621E5	2914.85577
0.67429	1.09495E5	2913.85577
0.67207	1.09369E5	2912.85577
0.66985	1.09244E5	2911.85577
0.66765	1.09119E5	2910.85577
0.66545	1.08994E5	2909.85577
0.66326	1.08870E5	2908.85577
0.66109	1.08746E5	2907.85577
0.65892	1.08623E5	2906.85577
0.65676	1.08499E5	2905.85577
0.65461	1.08377E5	2904.85577
0.65247	1.08254E5	2903.85577
0.65034	1.08133E5	2902.85577
0.64822	1.08011E5	2901.85577
0.64611	1.07890E5	2900.85577
0.64400	1.07769E5	2899.85577
0.64191	1.07649E5	2898.85577
0.63982	1.07529E5	2897.85577
0.63775	1.07409E5	2896.85577
0.63568	1.07290E5	2895.85577
0.63362	1.07171E5	2894.85577
0.63157	1.07052E5	2893.85577
0.62952	1.06934E5	2892.85577
0.62749	1.06816E5	2891.85577
0.62546	1.06699E5	2890.85577
0.62345	1.06582E5	2889.85577
0.62144	1.06465E5	2888.85577
0.61944	1.06349E5	2887.85577
0.61744	1.06233E5	2886.85577
0.61546	1.06117E5	2885.85577
0.61348	1.06002E5	2884.85577
0.61152	1.05887E5	2883.85577
0.60956	1.05772E5	2882.85577
0.60760	1.05658E5	2881.85577
0.60566	1.05544E5	2880.85577
0.60373	1.05430E5	2879.85577
0.60180	1.05317E5	2878.85577
0.59988	1.05204E5	2877.85577
0.59797	1.05091E5	2876.85577
0.59606	1.04979E5	2875.85577
0.59417	1.04867E5	2874.85577
0.59228	1.04755E5	2873.85577
0.59040	1.04644E5	2872.85577
0.58853	1.04533E5	2871.85577
0.58666	1.04422E5	2870.85577
0.58480	1.04312E5	2869.85577
0.58295	1.04202E5	2868.85577
0.58111	1.04092E5	2867.85577
0.57927	1.03983E5	2866.85577
0.57745	1.03874E5	2865.85577
0.57562	1.03765E5	2864.85577
0.57381	1.03656E5	2863.85577
0.57201	1.03548E5	2862.85577
0.57021	1.03440E5	2861.85577
0.56842	1.03333E5	2860.85577
0.56663	1.03225E5	2859.85577
0.56485	1.03118E5	2858.85577
0.56308	1.03012E5	2857.85577
0.56132	1.02905E5	2856.85577
0.55956	1.02799E5	2855.85577
0.55781	1.02693E5	2854.85577
0.55607	1.02588E5	2853.85577
0.55434	1.02483E5	2852.85577
0.55261	1.02378E5	2851.85577
0.55089	1.02273E5	2850.85577
0.54917	1.02169E5	2849.85577
0.54746	1.02065E5	2848.85577
0.54576	1.01961E5	2847.85577
0.54407	1.01857E5	2846.85577
0.54238	1.01754E5	2845.85577
0.54070	1.01651E5	2844.85577
0.53903	1.01549E5	2843.85577
0.53736	1.01446E5	2842.85577
0.53570	1.01344E5	2841.85577
0.53404	1.01242E5	2840.85577
0.53239	1.01141E5	2839.85577
0.53075	1.01039E5	2838.85577
0.52911	1.00938E5	2837.85577
0.52748	1.00837E5	2836.85577
0.52586	1.00737E5	2835.85577
0.52424	1.00637E5	2834.85577
0.52263	1.00537E5	2833.85577
0.52103	1.00437E5	2832.85577
0.51943	1.00338E5	2831.85577
0.51784	1.00238E5	2830.85577
0.51625	1.00139E5	2829.85577
0.51467	1.00041E5	2828.85577
0.51310	99942.21897	2827.85577
0.51153	99844.02292	2826.85577
0.50997	99746.07766	2825.85577
0.50841	99648.38184	2824.85577
0.50686	99550.93416	2823.85577
0.50532	99453.73329	2822.85577
0.50378	99356.77795	2821.85577
0.50225	99260.06684	2820.85577
0.50072	99163.59866	2819.85577
0.49920	99067.37215	2818.85577
0.49769	98971.38604	2817.85577
0.49618	98875.63905	2816.85577
0.49467	98780.12995	2815.85577
0.49318	98684.85749	2814.85577
0.49168	98589.82043	2813.85577
0.49020	98495.01753	2812.85577
0.48872	98400.44759	2811.85577
0.48724	98306.10938	2810.85577
0.48577	98212.00170	2809.85577
0.48431	98118.12335	2808.85577
0.48285	98024.47314	2807.85577
0.48140	97931.04989	2806.85577
0.47995	97837.85242	2805.85577
0.47851	97744.87957	2804.85577
0.47707	97652.13016	2803.85577
0.47564	97559.60306	2802.85577
0.47421	97467.29711	2801.85577
0.47279	97375.21118	2800.85577
0.47137	97283.34413	2799.85577
0.46996	97191.69483	2798.85577
0.46856	97100.26217	2797.85577
0.46716	97009.04504	2796.85577
0.46576	96918.04234	2795.85577
0.46437	96827.25296	2794.85577
0.46298	96736.67582	2793.85577
0.46160	96646.30983	2792.85577
0.46023	96556.15392	2791.85577
0.45886	96466.20702	2790.85577
0.45750	96376.46806	2789.85577
0.45614	96286.93598	2788.85577
0.45478	96197.60974	2787.85577
0.45343	96108.48830	2786.85577
0.45209	96019.57060	2785.85577
0.45074	95930.85564	2784.85577
0.44941	95842.34237	2783.85577
0.44808	95754.02978	2782.85577
0.44675	95665.91686	2781.85577
0.44543	95578.00260	2780.85577
0.44412	95490.28601	2779.85577
0.44280	95402.76609	2778.85577
0.44150	95315.44184	2777.85577
0.44020	95228.31230	2776.85577
0.43890	95141.37649	2775.85577
0.43761	95054.63343	2774.85577
0.43632	94968.08216	2773.85577
0.43503	94881.72173	2772.85577
0.43376	94795.55118	2771.85577
0.43248	94709.56957	2770.85577
0.43121	94623.77595	2769.85577
0.42995	94538.16939	2768.85577
0.42868	94452.74897	2767.85577
0.42743	94367.51375	2766.85577
0.42618	94282.46283	2765.85577
0.42493	94197.59528	2764.85577
0.42369	94112.91021	2763.85577
0.42245	94028.40671	2762.85577
0.42121	93944.08388	2761.85577
0.41998	93859.94084	2760.85577
0.41876	93775.97670	2759.85577
0.41754	93692.19057	2758.85577
0.41632	93608.58159	2757.85577
0.41511	93525.14889	2756.85577
0.41390	93441.89160	2755.85577
0.41269	93358.80886	2754.85577
0.41149	93275.89982	2753.85577
0.41030	93193.16362	2752.85577
0.40910	93110.59944	2751.85577
0.40792	93028.20642	2750.85577
0.40673	92945.98373	2749.85577
0.40555	92863.93055	2748.85577
0.40438	92782.04605	2747.85577
0.40321	92700.32941	2746.85577
0.40204	92618.77982	2745.85577
0.40088	92537.39647	2744.85577
0.39972	92456.17855	2743.85577
0.39856	92375.12527	2742.85577
0.39741	92294.23583	2741.85577
0.39626	92213.50943	2740.85577
0.39512	92132.94530	2739.85577
0.39398	92052.54264	2738.85577
0.39284	91972.30070	2737.85577
0.39171	91892.21869	2736.85577
0.39058	91812.29584	2735.85577
0.38946	91732.53139	2734.85577
0.38834	91652.92459	2733.85577
0.38722	91573.47468	2732.85577
0.38611	91494.18091	2731.85577
0.38500	91415.04254	2730.85577
0.38390	91336.05881	2729.85577
0.38279	91257.22901	2728.85577
0.38170	91178.55239	2727.85577
0.38060	91100.02823	2726.85577
0.37951	91021.65580	2725.85577
0.37843	90943.43438	2724.85577
0.37734	90865.36326	2723.85577
0.37626	90787.44173	2722.85577
0.37519	90709.66908	2721.85577
0.37411	90632.04460	2720.85577
0.37305	90554.56759	2719.85577
0.37198	90477.23737	2718.85577
0.37092	90400.05324	2717.85577
0.36986	90323.01451	2716.85577
0.36881	90246.12050	2715.85577
0.36775	90169.37053	2714.85577
0.36671	90092.76393	2713.85577
0.36566	90016.30001	2712.85577
0.36462	89939.97812	2711.85577
0.36359	89863.79760	2710.85577
0.36255	89787.75777	2709.85577
0.36152	89711.85799	2708.85577
0.36049	89636.09760	2707.85577
0.35947	89560.47596	2706.85577
0.35845	89484.99241	2705.85577
0.35743	89409.64631	2704.85577
0.35642	89334.43704	2703.85577
0.35541	89259.36395	2702.85577
0.35440	89184.42641	2701.85577
0.35340	89109.62380	2700.85577
0.35240	89034.95549	2699.85577
0.35140	88960.42086	2698.85577
0.35040	88886.01929	2697.85577
0.34941	88811.75018	2696.85577
0.34843	88737.61291	2695.85577
0.34744	88663.60688	2694.85577
0.34646	88589.73148	2693.85577
0.34548	88515.98611	2692.85577
0.34451	88442.37018	2691.85577
0.34353	88368.88310	2690.85577
0.34257	88295.52427	2689.85577
0.34160	88222.29310	2688.85577
0.34064	88149.18903	2687.85577
0.33968	88076.21146	2686.85577
0.33872	88003.35982	2685.85577
0.33777	87930.63353	2684.85577
0.33682	87858.03204	2683.85577
0.33587	87785.55476	2682.85577
0.33492	87713.20113	2681.85577
0.33398	87640.97061	2680.85577
0.33304	87568.86261	2679.85577
0.33211	87496.87661	2678.85577
0.33118	87425.01203	2677.85577
0.33025	87353.26833	2676.85577
0.32932	87281.64498	2675.85577
0.32840	87210.14142	2674.85577
0.32748	87138.75711	2673.85577
0.32656	87067.49152	2672.85577
0.32564	86996.34412	2671.85577
0.32473	86925.31438	2670.85577
0.32382	86854.40176	2669.85577
0.32291	86783.60575	2668.85577
0.32201	86712.92582	2667.85577
0.32111	86642.36144	2666.85577
0.32021	86571.91212	2665.85577
0.31931	86501.57733	2664.85577
0.31842	86431.35656	2663.85577
0.31753	86361.24930	2662.85577
0.31664	86291.25506	2661.85577
0.31576	86221.37332	2660.85577
0.31488	86151.60359	2659.85577
0.31400	86081.94536	2658.85577
0.31312	86012.39816	2657.85577
0.31225	85942.96148	2656.85577
0.31138	85873.63483	2655.85577
0.31051	85804.41774	2654.85577
0.30964	85735.30971	2653.85577
0.30878	85666.31027	2652.85577
0.30792	85597.41893	2651.85577
0.30706	85528.63523	2650.85577
0.30621	85459.95868	2649.85577
0.30535	85391.38882	2648.85577
0.30450	85322.92518	2647.85577
0.30366	85254.56729	2646.85577
0.30281	85186.31469	2645.85577
0.30197	85118.16692	2644.85577
0.30113	85050.12352	2643.85577
0.30029	84982.18404	2642.85577
0.29946	84914.34801	2641.85577
0.29862	84846.61500	2640.85577
0.29779	84778.98455	2639.85577
0.29697	84711.45622	2638.85577
0.29614	84644.02956	2637.85577
0.29532	84576.70413	2636.85577
0.29450	84509.47949	2635.85577
0.29368	84442.35520	2634.85577
0.29287	84375.33084	2633.85577
0.29205	84308.40596	2632.85577
0.29124	84241.58014	2631.85577
0.29044	84174.85295	2630.85577
0.28963	84108.22397	2629.85577
0.28883	84041.69277	2628.85577
0.28803	83975.25893	2627.85577
0.28723	83908.92203	2626.85577
0.28643	83842.68165	2625.85577
0.28564	83776.53739	2624.85577
0.28484	83710.48883	2623.85577
0.28406	83644.53555	2622.85577
0.28327	83578.67715	2621.85577
0.28248	83512.91324	2620.85577
0.28170	83447.24339	2619.85577
0.28092	83381.66721	2618.85577
0.28014	83316.18430	2617.85577
0.27937	83250.79426	2616.85577
0.27859	83185.49671	2615.85577
0.27782	83120.29123	2614.85577
0.27705	83055.17745	2613.85577
0.27629	82990.15497	2612.85577
0.27552	82925.22341	2611.85577
0.27476	82860.38238	2610.85577
0.27400	82795.63150	2609.85577
0.27324	82730.97039	2608.85577
0.27249	82666.39866	2607.85577
0.27173	82601.91594	2606.85577
0.27098	82537.52186	2605.85577
0.27023	82473.21604	2604.85577
0.26948	82408.99810	2603.85577
0.26874	82344.86769	2602.85577
0.26799	82280.82443	2601.85577
0.26725	82216.86796	2600.85577
0.26651	82152.99790	2599.85577
0.26578	82089.21391	2598.85577
0.26504	82025.51562	2597.85577
0.26431	81961.90267	2596.85577
0.26358	81898.37470	2595.85577
0.26285	81834.93136	2594.85577
0.26212	81771.57230	2593.85577
0.26140	81708.29716	2592.85577
0.26068	81645.10560	2591.85577
0.25996	81581.99727	2590.85577
0.25924	81518.97181	2589.85577
0.25852	81456.02890	2588.85577
0.25781	81393.16818	2587.85577
0.25709	81330.38932	2586.85577
0.25638	81267.69197	2585.85577
0.25567	81205.07579	2584.85577
0.25497	81142.54046	2583.85577
0.25426	81080.08564	2582.85577
0.25356	81017.71099	2581.85577
0.25286	80955.41619	2580.85577
0.25216	80893.20090	2579.85577
0.25146	80831.06480	2578.85577
0.25077	80769.00757	2577.85577
0.25007	80707.02887	2576.85577
0.24938	80645.12839	2575.85577
0.24869	80583.30581	2574.85577
0.24800	80521.56079	2573.85577
0.24732	80459.89304	2572.85577
0.24663	80398.30223	2571.85577
0.24595	80336.78805	2570.85577
0.24527	80275.35018	2569.85577
0.24459	80213.98831	2568.85577
0.24391	80152.70213	2567.85577
0.24324	80091.49134	2566.85577
0.24256	80030.35563	2565.85577
0.24189	79969.29469	2564.85577
0.24122	79908.30821	2563.85577
0.24056	79847.39590	2562.85577
0.23989	79786.55745	2561.85577
0.23922	79725.79257	2560.85577
0.23856	79665.10095	2559.85577
0.23790	79604.48231	2558.85577
0.23724	79543.93634	2557.85577
0.23658	79483.46274	2556.85577
0.23593	79423.06124	2555.85577
0.23527	79362.73154	2554.85577
0.23462	79302.47334	2553.85577
0.23397	79242.28636	2552.85577
0.23332	79182.17031	2551.85577
0.23267	79122.12492	2550.85577
0.23203	79062.14988	2549.85577
0.23138	79002.24493	2548.85577
0.23074	78942.40977	2547.85577
0.23010	78882.64414	2546.85577
0.22946	78822.94775	2545.85577
0.22883	78763.32032	2544.85577
0.22819	78703.76158	2543.85577
0.22755	78644.27125	2542.85577
0.22692	78584.84906	2541.85577
0.22629	78525.49474	2540.85577
0.22566	78466.20802	2539.85577
0.22503	78406.98863	2538.85577
0.22441	78347.83629	2537.85577
0.22378	78288.75075	2536.85577
0.22316	78229.73173	2535.85577
0.22254	78170.77898	2534.85577
0.22192	78111.89223	2533.85577
0.22130	78053.07121	2532.85577
0.22068	77994.31567	2531.85577
0.22007	77935.62535	2530.85577
0.21945	77876.99999	2529.85577
0.21884	77818.43933	2528.85577
0.21823	77759.94311	2527.85577
0.21762	77701.51109	2526.85577
0.21701	77643.14300	2525.85577
0.21641	77584.83860	2524.85577
0.21580	77526.59764	2523.85577
0.21520	77468.41985	2522.85577
0.21460	77410.30501	2521.85577
0.21400	77352.25285	2520.85577
0.21340	77294.26313	2519.85577
0.21280	77236.33561	2518.85577
0.21221	77178.47004	2517.85577
0.21161	77120.66618	2516.85577
0.21102	77062.92378	2515.85577
0.21043	77005.24261	2514.85577
0.20984	76947.62242	2513.85577
0.20925	76890.06298	2512.85577
0.20866	76832.56405	2511.85577
0.20807	76775.12539	2510.85577
0.20749	76717.74676	2509.85577
0.20691	76660.42794	2508.85577
0.20632	76603.16868	2507.85577
0.20574	76545.96876	2506.85577
0.20517	76488.82795	2505.85577
0.20459	76431.74601	2504.85577
0.20401	76374.72271	2503.85577
0.20344	76317.75783	2502.85577
0.20286	76260.85113	2501.85577
0.20229	76204.00240	2500.85577
0.20172	76147.21141	2499.85577
0.20115	76090.47793	2498.85577
0.20058	76033.80174	2497.85577
0.20001	75977.18261	2496.85577
0.19945	75920.62033	2495.85577
0.19888	75864.11468	2494.85577
0.19832	75807.66543	2493.85577
0.19776	75751.27237	2492.85577
0.19720	75694.93528	2491.85577
0.19664	75638.65394	2490.85577
0.19608	75582.42813	2489.85577
0.19552	75526.25765	2488.85577
0.19497	75470.14228	2487.85577
0.19441	75414.08180	2486.85577
0.19386	75358.07601	2485.85577
0.19331	75302.12469	2484.85577
0.19276	75246.22763	2483.85577
0.19221	75190.38462	2482.85577
0.19166	75134.59546	2481.85577
0.19112	75078.85993	2480.85577
0.19057	75023.17783	2479.85577
0.19003	74967.54896	2478.85577
0.18948	74911.97310	2477.85577
0.18894	74856.45006	2476.85577
0.18840	74800.97963	2475.85577
0.18786	74745.56160	2474.85577
0.18732	74690.19579	2473.85577
0.18678	74634.88198	2472.85577
0.18625	74579.61998	2471.85577
0.18571	74524.40958	2470.85577
0.18518	74469.25059	2469.85577
0.18465	74414.14281	2468.85577
0.18412	74359.08605	2467.85577
0.18359	74304.08010	2466.85577
0.18306	74249.12478	2465.85577
0.18253	74194.21988	2464.85577
0.18200	74139.36522	2463.85577
0.18148	74084.56060	2462.85577
0.18095	74029.80583	2461.85577
0.18043	73975.10071	2460.85577
0.17990	73920.44507	2459.85577
0.17938	73865.83870	2458.85577
0.17886	73811.28141	2457.85577
0.17834	73756.77303	2456.85577
0.17783	73702.31336	2455.85577
0.17731	73647.90221	2454.85577
0.17679	73593.53940	2453.85577
0.17628	73539.22475	2452.85577
0.17576	73484.95806	2451.85577
0.17525	73430.73915	2450.85577
0.17474	73376.56785	2449.85577
0.17423	73322.44396	2448.85577
0.17372	73268.36730	2447.85577
0.17321	73214.33770	2446.85577
0.17270	73160.35497	2445.85577
0.17219	73106.41893	2444.85577
0.17169	73052.52940	2443.85577
0.17118	72998.68621	2442.85577
0.17068	72944.88917	2441.85577
0.17018	72891.13810	2440.85577
0.16968	72837.43284	2439.85577
0.16918	72783.77320	2438.85577
0.16868	72730.15901	2437.85577
0.16818	72676.59009	2436.85577
0.16768	72623.06627	2435.85577
0.16718	72569.58737	2434.85577
0.16669	72516.15322	2433.85577
0.16619	72462.76365	2432.85577
0.16570	72409.41848	2431.85577
0.16520	72356.11754	2430.85577
0.16471	72302.86067	2429.85577
0.16422	72249.64769	2428.85577
0.16373	72196.47843	2427.85577
0.16324	72143.35272	2426.85577
0.16275	72090.27039	2425.85577
0.16227	72037.23128	2424.85577
0.16178	71984.23521	2423.85577
0.16129	71931.28202	2422.85577
0.16081	71878.37154	2421.85577
0.16032	71825.50361	2420.85577
0.15984	71772.67805	2419.85577
0.15936	71719.89471	2418.85577
0.15888	71667.15341	2417.85577
0.15840	71614.45400	2416.85577
0.15792	71561.79631	2415.85577
0.15744	71509.18018	2414.85577
0.15696	71456.60543	2413.85577
0.15648	71404.07192	2412.85577
0.15601	71351.57948	2411.85577
0.15553	71299.12794	2410.85577
0.15506	71246.71714	2409.85577
0.15458	71194.34693	2408.85577
0.15411	71142.01714	2407.85577
0.15364	71089.72761	2406.85577
0.15317	71037.47819	2405.85577
0.15270	70985.26870	2404.85577
0.15223	70933.09901	2403.85577
0.15176	70880.96893	2402.85577
0.15129	70828.87833	2401.85577
0.15082	70776.82703	2400.85577
0.15036	70724.81489	2399.85577
0.14989	70672.84174	2398.85577
0.14943	70620.90742	2397.85577
0.14896	70569.01179	2396.85577
0.14850	70517.15468	2395.85577
0.14804	70465.33594	2394.85577
0.14757	70413.55541	2393.85577
0.14711	70361.81294	2392.85577
0.14665	70310.10837	2391.85577
0.14619	70258.44155	2390.85577
0.14573	70206.81232	2389.85577
0.14527	70155.22053	2388.85577
0.14482	70103.66602	2387.85577
0.14436	70052.14864	2386.85577
0.14390	70000.66824	2385.85577
0.14345	69949.22467	2384.85577
0.14299	69897.81776	2383.85577
0.14254	69846.44737	2382.85577
0.14209	69795.11335	2381.85577
0.14163	69743.81554	2380.85577
0.14118	69692.55379	2379.85577
0.14073	69641.32794	2378.85577
0.14028	69590.13785	2377.85577
0.13983	69538.98336	2376.85577
0.13938	69487.86433	2375.85577
0.13893	69436.78060	2374.85577
0.13848	69385.73201	2373.85577
0.13803	69334.71842	2372.85577
0.13759	69283.73968	2371.85577
