Mole fraction of liquid	Heat per mole [J]	Temperature [K]
1.00000	1.30141E5	3092.69280
0.99998	1.30136E5	3092.59717
0.99589	1.29925E5	3091.59717
0.99182	1.29716E5	3090.59717
0.98778	1.29507E5	3089.59717
0.98376	1.29300E5	3088.59717
0.97976	1.29093E5	3087.59717
0.97578	1.28888E5	3086.59717
0.97183	1.28683E5	3085.59717
0.96789	1.28480E5	3084.59717
0.96398	1.28277E5	3083.59717
0.96009	1.28076E5	3082.59717
0.95623	1.27875E5	3081.59717
0.95238	1.27675E5	3080.59717
0.94855	1.27477E5	3079.59717
0.94475	1.27279E5	3078.59717
0.94097	1.27082E5	3077.59717
0.93720	1.26886E5	3076.59717
0.93346	1.26691E5	3075.59717
0.92974	1.26497E5	3074.59717
0.92604	1.26303E5	3073.59717
0.92236	1.26111E5	3072.59717
0.91870	1.25920E5	3071.59717
0.91505	1.25729E5	3070.59717
0.91143	1.25539E5	3069.59717
0.90783	1.25350E5	3068.59717
0.90425	1.25162E5	3067.59717
0.90068	1.24975E5	3066.59717
0.89714	1.24789E5	3065.59717
0.89361	1.24604E5	3064.59717
0.89011	1.24419E5	3063.59717
0.88662	1.24235E5	3062.59717
0.88315	1.24052E5	3061.59717
0.87970	1.23870E5	3060.59717
0.87627	1.23689E5	3059.59717
0.87285	1.23508E5	3058.59717
0.86946	1.23328E5	3057.59717
0.86608	1.23150E5	3056.59717
0.86272	1.22971E5	3055.59717
0.85938	1.22794E5	3054.59717
0.85605	1.22617E5	3053.59717
0.85274	1.22442E5	3052.59717
0.84945	1.22267E5	3051.59717
0.84618	1.22092E5	3050.59717
0.84292	1.21919E5	3049.59717
0.83969	1.21746E5	3048.59717
0.83646	1.21574E5	3047.59717
0.83326	1.21403E5	3046.59717
0.83007	1.21232E5	3045.59717
0.82690	1.21062E5	3044.59717
0.82374	1.20893E5	3043.59717
0.82060	1.20725E5	3042.59717
0.81748	1.20557E5	3041.59717
0.81437	1.20390E5	3040.59717
0.81128	1.20224E5	3039.59717
0.80821	1.20058E5	3038.59717
0.80515	1.19893E5	3037.59717
0.80211	1.19729E5	3036.59717
0.79908	1.19566E5	3035.59717
0.79607	1.19403E5	3034.59717
0.79307	1.19241E5	3033.59717
0.79009	1.19079E5	3032.59717
0.78712	1.18919E5	3031.59717
0.78417	1.18758E5	3030.59717
0.78123	1.18599E5	3029.59717
0.77831	1.18440E5	3028.59717
0.77541	1.18282E5	3027.59717
0.77251	1.18124E5	3026.59717
0.76964	1.17968E5	3025.59717
0.76677	1.17811E5	3024.59717
0.76393	1.17656E5	3023.59717
0.76109	1.17501E5	3022.59717
0.75827	1.17346E5	3021.59717
0.75546	1.17193E5	3020.59717
0.75267	1.17039E5	3019.59717
0.74989	1.16887E5	3018.59717
0.74713	1.16735E5	3017.59717
0.74438	1.16584E5	3016.59717
0.74164	1.16433E5	3015.59717
0.73892	1.16283E5	3014.59717
0.73621	1.16133E5	3013.59717
0.73351	1.15984E5	3012.59717
0.73083	1.15836E5	3011.59717
0.72816	1.15688E5	3010.59717
0.72550	1.15541E5	3009.59717
0.72286	1.15394E5	3008.59717
0.72023	1.15248E5	3007.59717
0.71761	1.15103E5	3006.59717
0.71501	1.14958E5	3005.59717
0.71241	1.14813E5	3004.59717
0.70983	1.14669E5	3003.59717
0.70727	1.14526E5	3002.59717
0.70471	1.14383E5	3001.59717
0.70217	1.14241E5	3000.59717
0.69964	1.14099E5	2999.59717
0.69712	1.13958E5	2998.59717
0.69462	1.13818E5	2997.59717
0.69212	1.13678E5	2996.59717
0.68964	1.13538E5	2995.59717
0.68717	1.13399E5	2994.59717
0.68471	1.13260E5	2993.59717
0.68227	1.13122E5	2992.59717
0.67983	1.12985E5	2991.59717
0.67741	1.12848E5	2990.59717
0.67500	1.12711E5	2989.59717
0.67260	1.12575E5	2988.59717
0.67021	1.12440E5	2987.59717
0.66783	1.12305E5	2986.59717
0.66547	1.12170E5	2985.59717
0.66312	1.12036E5	2984.59717
0.66077	1.11903E5	2983.59717
0.65844	1.11770E5	2982.59717
0.65612	1.11637E5	2981.59717
0.65381	1.11505E5	2980.59717
0.65151	1.11373E5	2979.59717
0.64922	1.11242E5	2978.59717
0.64694	1.11112E5	2977.59717
0.64468	1.10981E5	2976.59717
0.64242	1.10851E5	2975.59717
0.64017	1.10722E5	2974.59717
0.63794	1.10593E5	2973.59717
0.63571	1.10465E5	2972.59717
0.63350	1.10337E5	2971.59717
0.63129	1.10209E5	2970.59717
0.62910	1.10082E5	2969.59717
0.62691	1.09956E5	2968.59717
0.62474	1.09829E5	2967.59717
0.62258	1.09704E5	2966.59717
0.62042	1.09578E5	2965.59717
0.61828	1.09453E5	2964.59717
0.61614	1.09329E5	2963.59717
0.61402	1.09205E5	2962.59717
0.61191	1.09081E5	2961.59717
0.60980	1.08958E5	2960.59717
0.60770	1.08835E5	2959.59717
0.60562	1.08713E5	2958.59717
0.60354	1.08591E5	2957.59717
0.60148	1.08469E5	2956.59717
0.59942	1.08348E5	2955.59717
0.59737	1.08227E5	2954.59717
0.59533	1.08107E5	2953.59717
0.59330	1.07987E5	2952.59717
0.59128	1.07868E5	2951.59717
0.58927	1.07748E5	2950.59717
0.58727	1.07630E5	2949.59717
0.58527	1.07511E5	2948.59717
0.58329	1.07393E5	2947.59717
0.58131	1.07276E5	2946.59717
0.57935	1.07158E5	2945.59717
0.57739	1.07042E5	2944.59717
0.57544	1.06925E5	2943.59717
0.57350	1.06809E5	2942.59717
0.57157	1.06693E5	2941.59717
0.56964	1.06578E5	2940.59717
0.56773	1.06463E5	2939.59717
0.56582	1.06348E5	2938.59717
0.56393	1.06234E5	2937.59717
0.56204	1.06120E5	2936.59717
0.56016	1.06007E5	2935.59717
0.55828	1.05893E5	2934.59717
0.55642	1.05781E5	2933.59717
0.55456	1.05668E5	2932.59717
0.55271	1.05556E5	2931.59717
0.55087	1.05444E5	2930.59717
0.54904	1.05333E5	2929.59717
0.54722	1.05222E5	2928.59717
0.54540	1.05111E5	2927.59717
0.54359	1.05001E5	2926.59717
0.54179	1.04891E5	2925.59717
0.54000	1.04781E5	2924.59717
0.53822	1.04671E5	2923.59717
0.53644	1.04562E5	2922.59717
0.53467	1.04454E5	2921.59717
0.53291	1.04345E5	2920.59717
0.53115	1.04237E5	2919.59717
0.52941	1.04129E5	2918.59717
0.52767	1.04022E5	2917.59717
0.52594	1.03915E5	2916.59717
0.52421	1.03808E5	2915.59717
0.52250	1.03702E5	2914.59717
0.52079	1.03596E5	2913.59717
0.51909	1.03490E5	2912.59717
0.51739	1.03384E5	2911.59717
0.51570	1.03279E5	2910.59717
0.51402	1.03174E5	2909.59717
0.51235	1.03069E5	2908.59717
0.51069	1.02965E5	2907.59717
0.50903	1.02861E5	2906.59717
0.50737	1.02758E5	2905.59717
0.50573	1.02654E5	2904.59717
0.50409	1.02551E5	2903.59717
0.50246	1.02448E5	2902.59717
0.50084	1.02346E5	2901.59717
0.49922	1.02244E5	2900.59717
0.49761	1.02142E5	2899.59717
0.49601	1.02040E5	2898.59717
0.49441	1.01939E5	2897.59717
0.49282	1.01838E5	2896.59717
0.49123	1.01737E5	2895.59717
0.48966	1.01636E5	2894.59717
0.48809	1.01536E5	2893.59717
0.48652	1.01436E5	2892.59717
0.48497	1.01337E5	2891.59717
0.48341	1.01237E5	2890.59717
0.48187	1.01138E5	2889.59717
0.48033	1.01039E5	2888.59717
0.47880	1.00941E5	2887.59717
0.47727	1.00842E5	2886.59717
0.47575	1.00744E5	2885.59717
0.47424	1.00647E5	2884.59717
0.47273	1.00549E5	2883.59717
0.47123	1.00452E5	2882.59717
0.46974	1.00355E5	2881.59717
0.46825	1.00258E5	2880.59717
0.46677	1.00162E5	2879.59717
0.46529	1.00066E5	2878.59717
0.46382	99969.78935	2877.59717
0.46236	99874.12738	2876.59717
0.46090	99778.71946	2875.59717
0.45945	99683.56418	2874.59717
0.45800	99588.66014	2873.59717
0.45656	99494.00595	2872.59717
0.45513	99399.60024	2871.59717
0.45370	99305.44162	2870.59717
0.45227	99211.52875	2869.59717
0.45086	99117.86025	2868.59717
0.44945	99024.43480	2867.59717
0.44804	98931.25106	2866.59717
0.44664	98838.30769	2865.59717
0.44524	98745.60339	2864.59717
0.44386	98653.13685	2863.59717
0.44247	98560.90676	2862.59717
0.44109	98468.91184	2861.59717
0.43972	98377.15080	2860.59717
0.43835	98285.62238	2859.59717
0.43699	98194.32530	2858.59717
0.43564	98103.25831	2857.59717
0.43428	98012.42016	2856.59717
0.43294	97921.80961	2855.59717
0.43160	97831.42544	2854.59717
0.43026	97741.26641	2853.59717
0.42893	97651.33131	2852.59717
0.42761	97561.61894	2851.59717
0.42629	97472.12810	2850.59717
0.42498	97382.85759	2849.59717
0.42367	97293.80622	2848.59717
0.42236	97204.97284	2847.59717
0.42106	97116.35626	2846.59717
0.41977	97027.95533	2845.59717
0.41848	96939.76889	2844.59717
0.41720	96851.79580	2843.59717
0.41592	96764.03493	2842.59717
0.41465	96676.48513	2841.59717
0.41338	96589.14530	2840.59717
0.41211	96502.01430	2839.59717
0.41086	96415.09105	2838.59717
0.40960	96328.37442	2837.59717
0.40835	96241.86334	2836.59717
0.40711	96155.55671	2835.59717
0.40587	96069.45345	2834.59717
0.40463	95983.55250	2833.59717
0.40340	95897.85278	2832.59717
0.40218	95812.35324	2831.59717
0.40096	95727.05282	2830.59717
0.39974	95641.95048	2829.59717
0.39853	95557.04519	2828.59717
0.39732	95472.33590	2827.59717
0.39612	95387.82160	2826.59717
0.39493	95303.50126	2825.59717
0.39373	95219.37388	2824.59717
0.39254	95135.43844	2823.59717
0.39136	95051.69396	2822.59717
0.39018	94968.13943	2821.59717
0.38901	94884.77387	2820.59717
0.38784	94801.59630	2819.59717
0.38667	94718.60575	2818.59717
0.38551	94635.80125	2817.59717
0.38435	94553.18183	2816.59717
0.38320	94470.74655	2815.59717
0.38205	94388.49444	2814.59717
0.38090	94306.42458	2813.59717
0.37976	94224.53602	2812.59717
0.37863	94142.82783	2811.59717
0.37750	94061.29909	2810.59717
0.37637	93979.94887	2809.59717
0.37525	93898.77626	2808.59717
0.37413	93817.78035	2807.59717
0.37301	93736.96025	2806.59717
0.37190	93656.31505	2805.59717
0.37080	93575.84386	2804.59717
0.36969	93495.54581	2803.59717
0.36860	93415.42000	2802.59717
0.36750	93335.46556	2801.59717
0.36641	93255.68163	2800.59717
0.36532	93176.06733	2799.59717
0.36424	93096.62183	2798.59717
0.36316	93017.34425	2797.59717
0.36209	92938.23375	2796.59717
0.36102	92859.28949	2795.59717
0.35995	92780.51064	2794.59717
0.35889	92701.89635	2793.59717
0.35783	92623.44581	2792.59717
0.35678	92545.15820	2791.59717
0.35573	92467.03269	2790.59717
0.35468	92389.06847	2789.59717
0.35363	92311.26474	2788.59717
0.35259	92233.62070	2787.59717
0.35156	92156.13555	2786.59717
0.35053	92078.80850	2785.59717
0.34950	92001.63876	2784.59717
0.34847	91924.62556	2783.59717
0.34745	91847.76810	2782.59717
0.34644	91771.06562	2781.59717
0.34542	91694.51736	2780.59717
0.34441	91618.12254	2779.59717
0.34341	91541.88042	2778.59717
0.34240	91465.79024	2777.59717
0.34140	91389.85124	2776.59717
0.34041	91314.06269	2775.59717
0.33942	91238.42384	2774.59717
0.33843	91162.93396	2773.59717
0.33744	91087.59231	2772.59717
0.33646	91012.39818	2771.59717
0.33548	90937.35083	2770.59717
0.33451	90862.44956	2769.59717
0.33354	90787.69364	2768.59717
0.33257	90713.08237	2767.59717
0.33160	90638.61504	2766.59717
0.33064	90564.29096	2765.59717
0.32969	90490.10942	2764.59717
0.32873	90416.06973	2763.59717
0.32778	90342.17121	2762.59717
0.32683	90268.41316	2761.59717
0.32589	90194.79492	2760.59717
0.32495	90121.31581	2759.59717
0.32401	90047.97514	2758.59717
0.32308	89974.77226	2757.59717
0.32214	89901.70650	2756.59717
0.32122	89828.77721	2755.59717
0.32029	89755.98372	2754.59717
0.31937	89683.32538	2753.59717
0.31845	89610.80155	2752.59717
0.31754	89538.41158	2751.59717
0.31663	89466.15482	2750.59717
0.31572	89394.03066	2749.59717
0.31481	89322.03844	2748.59717
0.31391	89250.17754	2747.59717
0.31301	89178.44734	2746.59717
0.31211	89106.84722	2745.59717
0.31122	89035.37654	2744.59717
0.31033	88964.03471	2743.59717
0.30944	88892.82111	2742.59717
0.30856	88821.73514	2741.59717
0.30768	88750.77618	2740.59717
0.30680	88679.94364	2739.59717
0.30592	88609.23693	2738.59717
0.30505	88538.65544	2737.59717
0.30418	88468.19859	2736.59717
0.30332	88397.86580	2735.59717
0.30245	88327.65647	2734.59717
0.30159	88257.57004	2733.59717
0.30073	88187.60592	2732.59717
0.29988	88117.76354	2731.59717
0.29903	88048.04233	2730.59717
0.29818	87978.44174	2729.59717
0.29733	87908.96118	2728.59717
0.29649	87839.60011	2727.59717
0.29565	87770.35796	2726.59717
0.29481	87701.23419	2725.59717
0.29398	87632.22824	2724.59717
0.29315	87563.33957	2723.59717
0.29232	87494.56764	2722.59717
0.29149	87425.91190	2721.59717
0.29067	87357.37181	2720.59717
0.28984	87288.94685	2719.59717
0.28903	87220.63647	2718.59717
0.28821	87152.44016	2717.59717
0.28740	87084.35739	2716.59717
0.28659	87016.38763	2715.59717
0.28578	86948.53036	2714.59717
0.28498	86880.78508	2713.59717
0.28417	86813.15126	2712.59717
0.28337	86745.62840	2711.59717
0.28258	86678.21599	2710.59717
0.28178	86610.91352	2709.59717
0.28099	86543.72049	2708.59717
0.28020	86476.63641	2707.59717
0.27941	86409.66077	2706.59717
0.27863	86342.79309	2705.59717
0.27785	86276.03287	2704.59717
0.27707	86209.37963	2703.59717
0.27629	86142.83288	2702.59717
0.27552	86076.39214	2701.59717
0.27475	86010.05694	2700.59717
0.27398	85943.82678	2699.59717
0.27321	85877.70120	2698.59717
0.27245	85811.67973	2697.59717
0.27169	85745.76191	2696.59717
0.27093	85679.94725	2695.59717
0.27017	85614.23530	2694.59717
0.26942	85548.62561	2693.59717
0.26867	85483.11770	2692.59717
0.26792	85417.71113	2691.59717
0.26717	85352.40544	2690.59717
0.26643	85287.20018	2689.59717
0.26568	85222.09491	2688.59717
0.26494	85157.08917	2687.59717
0.26421	85092.18253	2686.59717
0.26347	85027.37454	2685.59717
0.26274	84962.66476	2684.59717
0.26201	84898.05277	2683.59717
0.26128	84833.53812	2682.59717
0.26055	84769.12039	2681.59717
0.25983	84704.79914	2680.59717
0.25911	84640.57395	2679.59717
0.25839	84576.44441	2678.59717
0.25767	84512.41007	2677.59717
0.25696	84448.47053	2676.59717
0.25624	84384.62537	2675.59717
0.25553	84320.87418	2674.59717
0.25483	84257.21653	2673.59717
0.25412	84193.65203	2672.59717
0.25342	84130.18026	2671.59717
0.25272	84066.80082	2670.59717
0.25202	84003.51331	2669.59717
0.25132	83940.31732	2668.59717
0.25062	83877.21245	2667.59717
0.24993	83814.19832	2666.59717
0.24924	83751.27451	2665.59717
0.24855	83688.44065	2664.59717
0.24787	83625.69634	2663.59717
0.24718	83563.04119	2662.59717
0.24650	83500.47482	2661.59717
0.24582	83437.99684	2660.59717
0.24514	83375.60687	2659.59717
0.24447	83313.30453	2658.59717
0.24379	83251.08944	2657.59717
0.24312	83188.96123	2656.59717
0.24245	83126.91953	2655.59717
0.24178	83064.96395	2654.59717
0.24112	83003.09414	2653.59717
0.24045	82941.30973	2652.59717
0.23979	82879.61034	2651.59717
0.23913	82817.99561	2650.59717
0.23848	82756.46519	2649.59717
0.23782	82695.01872	2648.59717
0.23717	82633.65582	2647.59717
0.23651	82572.37616	2646.59717
0.23586	82511.17937	2645.59717
0.23522	82450.06511	2644.59717
0.23457	82389.03302	2643.59717
0.23393	82328.08275	2642.59717
0.23328	82267.21396	2641.59717
0.23264	82206.42631	2640.59717
0.23201	82145.71944	2639.59717
0.23137	82085.09302	2638.59717
0.23074	82024.54671	2637.59717
0.23010	81964.08018	2636.59717
0.22947	81903.69308	2635.59717
0.22884	81843.38508	2634.59717
0.22822	81783.15586	2633.59717
0.22759	81723.00507	2632.59717
0.22697	81662.93240	2631.59717
0.22635	81602.93751	2630.59717
0.22573	81543.02008	2629.59717
0.22511	81483.17979	2628.59717
0.22449	81423.41631	2627.59717
0.22388	81363.72932	2626.59717
0.22327	81304.11851	2625.59717
0.22266	81244.58356	2624.59717
0.22205	81185.12416	2623.59717
0.22144	81125.73998	2622.59717
0.22083	81066.43073	2621.59717
0.22023	81007.19608	2620.59717
0.21963	80948.03573	2619.59717
0.21903	80888.94938	2618.59717
0.21843	80829.93672	2617.59717
0.21783	80770.99744	2616.59717
0.21724	80712.13124	2615.59717
0.21665	80653.33782	2614.59717
0.21605	80594.61689	2613.59717
0.21546	80535.96814	2612.59717
0.21488	80477.39129	2611.59717
0.21429	80418.88603	2610.59717
0.21370	80360.45207	2609.59717
0.21312	80302.08912	2608.59717
0.21254	80243.79689	2607.59717
0.21196	80185.57510	2606.59717
0.21138	80127.42345	2605.59717
0.21081	80069.34167	2604.59717
0.21023	80011.32946	2603.59717
0.20966	79953.38655	2602.59717
0.20909	79895.51265	2601.59717
0.20852	79837.70748	2600.59717
0.20795	79779.97077	2599.59717
0.20738	79722.30224	2598.59717
0.20681	79664.70162	2597.59717
0.20625	79607.16863	2596.59717
0.20569	79549.70299	2595.59717
0.20513	79492.30444	2594.59717
0.20457	79434.97271	2593.59717
0.20401	79377.70753	2592.59717
0.20346	79320.50863	2591.59717
0.20290	79263.37575	2590.59717
0.20235	79206.30862	2589.59717
0.20180	79149.30698	2588.59717
0.20125	79092.37057	2587.59717
0.20070	79035.49912	2586.59717
0.20015	78978.69239	2585.59717
0.19961	78921.95011	2584.59717
0.19906	78865.27202	2583.59717
0.19852	78808.65787	2582.59717
0.19798	78752.10741	2581.59717
0.19744	78695.62039	2580.59717
0.19690	78639.19655	2579.59717
0.19636	78582.83564	2578.59717
0.19583	78526.53741	2577.59717
0.19530	78470.30163	2576.59717
0.19476	78414.12803	2575.59717
0.19423	78358.01638	2574.59717
0.19370	78301.96644	2573.59717
0.19318	78245.97795	2572.59717
0.19265	78190.05068	2571.59717
0.19212	78134.18440	2570.59717
0.19160	78078.37885	2569.59717
0.19108	78022.63380	2568.59717
0.19056	77966.94902	2567.59717
0.19004	77911.32428	2566.59717
0.18952	77855.75932	2565.59717
0.18900	77800.25394	2564.59717
0.18849	77744.80788	2563.59717
0.18797	77689.42093	2562.59717
0.18746	77634.09284	2561.59717
0.18695	77578.82340	2560.59717
0.18644	77523.61238	2559.59717
0.18593	77468.45955	2558.59717
0.18542	77413.36468	2557.59717
0.18492	77358.32755	2556.59717
0.18441	77303.34794	2555.59717
0.18391	77248.42563	2554.59717
0.18341	77193.56039	2553.59717
0.18291	77138.75201	2552.59717
0.18241	77084.00027	2551.59717
0.18191	77029.30495	2550.59717
0.18141	76974.66583	2549.59717
0.18092	76920.08270	2548.59717
0.18042	76865.55535	2547.59717
0.17993	76811.08355	2546.59717
0.17944	76756.66711	2545.59717
0.17895	76702.30580	2544.59717
0.17846	76647.99943	2543.59717
0.17797	76593.74777	2542.59717
0.17748	76539.55062	2541.59717
0.17700	76485.40777	2540.59717
0.17651	76431.31903	2539.59717
0.17603	76377.28417	2538.59717
0.17555	76323.30301	2537.59717
0.17507	76269.37533	2536.59717
0.17459	76215.50093	2535.59717
0.17411	76161.67961	2534.59717
0.17363	76107.91118	2533.59717
0.17316	76054.19543	2532.59717
0.17268	76000.53216	2531.59717
0.17221	75946.92118	2530.59717
0.17173	75893.36229	2529.59717
0.17126	75839.85530	2528.59717
0.17079	75786.40001	2527.59717
0.17032	75732.99622	2526.59717
0.16986	75679.64375	2525.59717
0.16939	75626.34240	2524.59717
0.16892	75573.09198	2523.59717
0.16846	75519.89230	2522.59717
0.16800	75466.74318	2521.59717
0.16754	75413.64442	2520.59717
0.16707	75360.59583	2519.59717
0.16661	75307.59724	2518.59717
0.16616	75254.64845	2517.59717
0.16570	75201.74929	2516.59717
0.16524	75148.89956	2515.59717
0.16479	75096.09908	2514.59717
0.16433	75043.34768	2513.59717
0.16388	74990.64516	2512.59717
0.16343	74937.99136	2511.59717
0.16298	74885.38608	2510.59717
0.16253	74832.82916	2509.59717
0.16208	74780.32041	2508.59717
0.16163	74727.85966	2507.59717
0.16118	74675.44673	2506.59717
0.16074	74623.08144	2505.59717
0.16029	74570.76362	2504.59717
0.15985	74518.49310	2503.59717
0.15941	74466.26970	2502.59717
0.15897	74414.09326	2501.59717
0.15852	74361.96359	2500.59717
0.15809	74309.88053	2499.59717
0.15765	74257.84392	2498.59717
0.15721	74205.85357	2497.59717
0.15677	74153.90932	2496.59717
0.15634	74102.01101	2495.59717
0.15590	74050.15846	2494.59717
0.15547	73998.35152	2493.59717
0.15504	73946.59001	2492.59717
0.15461	73894.87377	2491.59717
0.15418	73843.20264	2490.59717
0.15375	73791.57645	2489.59717
0.15332	73739.99505	2488.59717
0.15289	73688.45826	2487.59717
0.15246	73636.96594	2486.59717
0.15204	73585.51791	2485.59717
0.15161	73534.11402	2484.59717
0.15119	73482.75412	2483.59717
0.15077	73431.43803	2482.59717
0.15035	73380.16561	2481.59717
0.14993	73328.93670	2480.59717
0.14951	73277.75114	2479.59717
0.14909	73226.60878	2478.59717
0.14867	73175.50946	2477.59717
0.14825	73124.45303	2476.59717
0.14784	73073.43933	2475.59717
0.14742	73022.46822	2474.59717
0.14701	72971.53954	2473.59717
0.14659	72920.65313	2472.59717
0.14618	72869.80885	2471.59717
0.14577	72819.00655	2470.59717
0.14536	72768.24609	2469.59717
0.14495	72717.52730	2468.59717
0.14454	72666.85004	2467.59717
0.14413	72616.21416	2466.59717
0.14372	72565.61953	2465.59717
0.14332	72515.06598	2464.59717
0.14291	72464.55338	2463.59717
0.14251	72414.08158	2462.59717
0.14210	72363.65044	2461.59717
0.14170	72313.25981	2460.59717
0.14130	72262.90955	2459.59717
0.14090	72212.59951	2458.59717
0.14050	72162.32956	2457.59717
0.14010	72112.09955	2456.59717
0.13970	72061.90935	2455.59717
0.13930	72011.75880	2454.59717
0.13890	71961.64778	2453.59717
0.13851	71911.57614	2452.59717
0.13811	71861.54374	2451.59717
0.13772	71811.55045	2450.59717
0.13732	71761.59613	2449.59717
0.13693	71711.68064	2448.59717
0.13654	71661.80385	2447.59717
0.13615	71611.96561	2446.59717
0.13576	71562.16580	2445.59717
0.13537	71512.40428	2444.59717
0.13498	71462.68092	2443.59717
0.13459	71412.99557	2442.59717
0.13420	71363.34811	2441.59717
0.13382	71313.73841	2440.59717
0.13343	71264.16633	2439.59717
0.13304	71214.63175	2438.59717
0.13266	71165.13452	2437.59717
