Mole fraction of liquid	Heat per mole [J]	Temperature [K]
1.00000	1.30486E5	3094.89340
0.99998	1.30480E5	3094.79778
0.99586	1.30269E5	3093.79778
0.99176	1.30058E5	3092.79778
0.98768	1.29848E5	3091.79778
0.98363	1.29639E5	3090.79778
0.97960	1.29431E5	3089.79778
0.97560	1.29224E5	3088.79778
0.97161	1.29019E5	3087.79778
0.96765	1.28814E5	3086.79778
0.96371	1.28610E5	3085.79778
0.95979	1.28407E5	3084.79778
0.95590	1.28205E5	3083.79778
0.95202	1.28004E5	3082.79778
0.94817	1.27804E5	3081.79778
0.94434	1.27605E5	3080.79778
0.94053	1.27407E5	3079.79778
0.93674	1.27210E5	3078.79778
0.93297	1.27013E5	3077.79778
0.92922	1.26818E5	3076.79778
0.92549	1.26624E5	3075.79778
0.92178	1.26430E5	3074.79778
0.91810	1.26237E5	3073.79778
0.91443	1.26046E5	3072.79778
0.91078	1.25855E5	3071.79778
0.90716	1.25665E5	3070.79778
0.90355	1.25476E5	3069.79778
0.89996	1.25287E5	3068.79778
0.89639	1.25100E5	3067.79778
0.89284	1.24913E5	3066.79778
0.88931	1.24728E5	3065.79778
0.88580	1.24543E5	3064.79778
0.88231	1.24359E5	3063.79778
0.87883	1.24176E5	3062.79778
0.87538	1.23993E5	3061.79778
0.87194	1.23812E5	3060.79778
0.86852	1.23631E5	3059.79778
0.86512	1.23451E5	3058.79778
0.86174	1.23272E5	3057.79778
0.85838	1.23093E5	3056.79778
0.85503	1.22916E5	3055.79778
0.85170	1.22739E5	3054.79778
0.84839	1.22563E5	3053.79778
0.84510	1.22388E5	3052.79778
0.84182	1.22213E5	3051.79778
0.83857	1.22040E5	3050.79778
0.83532	1.21867E5	3049.79778
0.83210	1.21694E5	3048.79778
0.82889	1.21523E5	3047.79778
0.82570	1.21352E5	3046.79778
0.82253	1.21182E5	3045.79778
0.81937	1.21013E5	3044.79778
0.81623	1.20844E5	3043.79778
0.81310	1.20676E5	3042.79778
0.80999	1.20509E5	3041.79778
0.80690	1.20343E5	3040.79778
0.80382	1.20177E5	3039.79778
0.80076	1.20012E5	3038.79778
0.79772	1.19848E5	3037.79778
0.79469	1.19684E5	3036.79778
0.79167	1.19521E5	3035.79778
0.78867	1.19359E5	3034.79778
0.78569	1.19197E5	3033.79778
0.78272	1.19036E5	3032.79778
0.77977	1.18876E5	3031.79778
0.77683	1.18716E5	3030.79778
0.77391	1.18557E5	3029.79778
0.77100	1.18399E5	3028.79778
0.76811	1.18241E5	3027.79778
0.76523	1.18084E5	3026.79778
0.76237	1.17928E5	3025.79778
0.75952	1.17772E5	3024.79778
0.75668	1.17617E5	3023.79778
0.75386	1.17463E5	3022.79778
0.75105	1.17309E5	3021.79778
0.74826	1.17155E5	3020.79778
0.74548	1.17003E5	3019.79778
0.74272	1.16851E5	3018.79778
0.73997	1.16699E5	3017.79778
0.73723	1.16549E5	3016.79778
0.73451	1.16398E5	3015.79778
0.73180	1.16249E5	3014.79778
0.72910	1.16100E5	3013.79778
0.72642	1.15951E5	3012.79778
0.72375	1.15803E5	3011.79778
0.72109	1.15656E5	3010.79778
0.71845	1.15509E5	3009.79778
0.71582	1.15363E5	3008.79778
0.71320	1.15217E5	3007.79778
0.71059	1.15072E5	3006.79778
0.70800	1.14928E5	3005.79778
0.70542	1.14784E5	3004.79778
0.70286	1.14640E5	3003.79778
0.70030	1.14498E5	3002.79778
0.69776	1.14355E5	3001.79778
0.69523	1.14213E5	3000.79778
0.69271	1.14072E5	2999.79778
0.69021	1.13932E5	2998.79778
0.68772	1.13791E5	2997.79778
0.68524	1.13652E5	2996.79778
0.68277	1.13513E5	2995.79778
0.68031	1.13374E5	2994.79778
0.67787	1.13236E5	2993.79778
0.67543	1.13098E5	2992.79778
0.67301	1.12961E5	2991.79778
0.67060	1.12825E5	2990.79778
0.66820	1.12689E5	2989.79778
0.66582	1.12553E5	2988.79778
0.66344	1.12418E5	2987.79778
0.66108	1.12283E5	2986.79778
0.65872	1.12149E5	2985.79778
0.65638	1.12016E5	2984.79778
0.65405	1.11882E5	2983.79778
0.65173	1.11750E5	2982.79778
0.64942	1.11618E5	2981.79778
0.64712	1.11486E5	2980.79778
0.64484	1.11355E5	2979.79778
0.64256	1.11224E5	2978.79778
0.64030	1.11094E5	2977.79778
0.63804	1.10964E5	2976.79778
0.63580	1.10834E5	2975.79778
0.63356	1.10706E5	2974.79778
0.63134	1.10577E5	2973.79778
0.62913	1.10449E5	2972.79778
0.62693	1.10321E5	2971.79778
0.62473	1.10194E5	2970.79778
0.62255	1.10068E5	2969.79778
0.62038	1.09941E5	2968.79778
0.61822	1.09816E5	2967.79778
0.61607	1.09690E5	2966.79778
0.61392	1.09565E5	2965.79778
0.61179	1.09441E5	2964.79778
0.60967	1.09317E5	2963.79778
0.60756	1.09193E5	2962.79778
0.60545	1.09070E5	2961.79778
0.60336	1.08947E5	2960.79778
0.60128	1.08824E5	2959.79778
0.59920	1.08702E5	2958.79778
0.59714	1.08581E5	2957.79778
0.59508	1.08460E5	2956.79778
0.59304	1.08339E5	2955.79778
0.59100	1.08218E5	2954.79778
0.58897	1.08098E5	2953.79778
0.58696	1.07979E5	2952.79778
0.58495	1.07860E5	2951.79778
0.58295	1.07741E5	2950.79778
0.58096	1.07622E5	2949.79778
0.57898	1.07504E5	2948.79778
0.57700	1.07387E5	2947.79778
0.57504	1.07269E5	2946.79778
0.57308	1.07153E5	2945.79778
0.57114	1.07036E5	2944.79778
0.56920	1.06920E5	2943.79778
0.56727	1.06804E5	2942.79778
0.56535	1.06689E5	2941.79778
0.56344	1.06574E5	2940.79778
0.56154	1.06459E5	2939.79778
0.55964	1.06345E5	2938.79778
0.55775	1.06231E5	2937.79778
0.55588	1.06117E5	2936.79778
0.55401	1.06004E5	2935.79778
0.55215	1.05891E5	2934.79778
0.55029	1.05779E5	2933.79778
0.54845	1.05667E5	2932.79778
0.54661	1.05555E5	2931.79778
0.54478	1.05443E5	2930.79778
0.54296	1.05332E5	2929.79778
0.54115	1.05222E5	2928.79778
0.53934	1.05111E5	2927.79778
0.53755	1.05001E5	2926.79778
0.53576	1.04891E5	2925.79778
0.53398	1.04782E5	2924.79778
0.53220	1.04673E5	2923.79778
0.53044	1.04564E5	2922.79778
0.52868	1.04456E5	2921.79778
0.52693	1.04348E5	2920.79778
0.52519	1.04240E5	2919.79778
0.52345	1.04132E5	2918.79778
0.52172	1.04025E5	2917.79778
0.52000	1.03918E5	2916.79778
0.51829	1.03812E5	2915.79778
0.51658	1.03706E5	2914.79778
0.51488	1.03600E5	2913.79778
0.51319	1.03494E5	2912.79778
0.51151	1.03389E5	2911.79778
0.50983	1.03284E5	2910.79778
0.50816	1.03180E5	2909.79778
0.50650	1.03075E5	2908.79778
0.50485	1.02971E5	2907.79778
0.50320	1.02868E5	2906.79778
0.50156	1.02764E5	2905.79778
0.49992	1.02661E5	2904.79778
0.49829	1.02558E5	2903.79778
0.49667	1.02456E5	2902.79778
0.49506	1.02353E5	2901.79778
0.49345	1.02251E5	2900.79778
0.49185	1.02150E5	2899.79778
0.49026	1.02048E5	2898.79778
0.48867	1.01947E5	2897.79778
0.48709	1.01847E5	2896.79778
0.48552	1.01746E5	2895.79778
0.48395	1.01646E5	2894.79778
0.48239	1.01546E5	2893.79778
0.48084	1.01446E5	2892.79778
0.47929	1.01347E5	2891.79778
0.47775	1.01248E5	2890.79778
0.47622	1.01149E5	2889.79778
0.47469	1.01050E5	2888.79778
0.47317	1.00952E5	2887.79778
0.47165	1.00854E5	2886.79778
0.47014	1.00756E5	2885.79778
0.46864	1.00659E5	2884.79778
0.46714	1.00561E5	2883.79778
0.46565	1.00465E5	2882.79778
0.46417	1.00368E5	2881.79778
0.46269	1.00271E5	2880.79778
0.46122	1.00175E5	2879.79778
0.45975	1.00079E5	2878.79778
0.45829	99983.52319	2877.79778
0.45684	99888.09435	2876.79778
0.45539	99792.91807	2875.79778
0.45395	99697.99295	2874.79778
0.45251	99603.31759	2873.79778
0.45108	99508.89060	2872.79778
0.44966	99414.71062	2871.79778
0.44824	99320.77626	2870.79778
0.44682	99227.08618	2869.79778
0.44542	99133.63903	2868.79778
0.44401	99040.43346	2867.79778
0.44262	98947.46815	2866.79778
0.44123	98854.74177	2865.79778
0.43984	98762.25302	2864.79778
0.43846	98670.00058	2863.79778
0.43709	98577.98317	2862.79778
0.43572	98486.19949	2861.79778
0.43436	98394.64827	2860.79778
0.43300	98303.32824	2859.79778
0.43165	98212.23814	2858.79778
0.43030	98121.37672	2857.79778
0.42896	98030.74272	2856.79778
0.42762	97940.33493	2855.79778
0.42629	97850.15211	2854.79778
0.42497	97760.19303	2853.79778
0.42365	97670.45650	2852.79778
0.42233	97580.94130	2851.79778
0.42102	97491.64624	2850.79778
0.41972	97402.57014	2849.79778
0.41842	97313.71181	2848.79778
0.41712	97225.07008	2847.79778
0.41583	97136.64380	2846.79778
0.41455	97048.43179	2845.79778
0.41327	96960.43292	2844.79778
0.41200	96872.64604	2843.79778
0.41073	96785.07002	2842.79778
0.40946	96697.70374	2841.79778
0.40820	96610.54607	2840.79778
0.40695	96523.59590	2839.79778
0.40570	96436.85213	2838.79778
0.40445	96350.31366	2837.79778
0.40321	96263.97940	2836.79778
0.40198	96177.84827	2835.79778
0.40075	96091.91920	2834.79778
0.39952	96006.19111	2833.79778
0.39830	95920.66294	2832.79778
0.39708	95835.33364	2831.79778
0.39587	95750.20216	2830.79778
0.39467	95665.26746	2829.79778
0.39346	95580.52850	2828.79778
0.39227	95495.98426	2827.79778
0.39107	95411.63371	2826.79778
0.38988	95327.47584	2825.79778
0.38870	95243.50964	2824.79778
0.38752	95159.73411	2823.79778
0.38635	95076.14826	2822.79778
0.38518	94992.75109	2821.79778
0.38401	94909.54163	2820.79778
0.38285	94826.51889	2819.79778
0.38169	94743.68191	2818.79778
0.38054	94661.02972	2817.79778
0.37939	94578.56137	2816.79778
0.37824	94496.27589	2815.79778
0.37710	94414.17236	2814.79778
0.37597	94332.24983	2813.79778
0.37484	94250.50736	2812.79778
0.37371	94168.94402	2811.79778
0.37259	94087.55890	2810.79778
0.37147	94006.35108	2809.79778
0.37035	93925.31965	2808.79778
0.36924	93844.46370	2807.79778
0.36814	93763.78234	2806.79778
0.36703	93683.27467	2805.79778
0.36594	93602.93980	2804.79778
0.36484	93522.77686	2803.79778
0.36375	93442.78497	2802.79778
0.36267	93362.96324	2801.79778
0.36158	93283.31083	2800.79778
0.36051	93203.82687	2799.79778
0.35943	93124.51051	2798.79778
0.35836	93045.36089	2797.79778
0.35730	92966.37717	2796.79778
0.35623	92887.55851	2795.79778
0.35518	92808.90409	2794.79778
0.35412	92730.41307	2793.79778
0.35307	92652.08462	2792.79778
0.35202	92573.91793	2791.79778
0.35098	92495.91219	2790.79778
0.34994	92418.06659	2789.79778
0.34891	92340.38033	2788.79778
0.34788	92262.85260	2787.79778
0.34685	92185.48262	2786.79778
0.34582	92108.26959	2785.79778
0.34480	92031.21273	2784.79778
0.34379	91954.31127	2783.79778
0.34277	91877.56443	2782.79778
0.34176	91800.97144	2781.79778
0.34076	91724.53154	2780.79778
0.33976	91648.24396	2779.79778
0.33876	91572.10796	2778.79778
0.33776	91496.12278	2777.79778
0.33677	91420.28767	2776.79778
0.33578	91344.60190	2775.79778
0.33480	91269.06473	2774.79778
0.33382	91193.67542	2773.79778
0.33284	91118.43325	2772.79778
0.33187	91043.33749	2771.79778
0.33090	90968.38743	2770.79778
0.32993	90893.58235	2769.79778
0.32897	90818.92153	2768.79778
0.32801	90744.40428	2767.79778
0.32705	90670.02990	2766.79778
0.32610	90595.79768	2765.79778
0.32515	90521.70692	2764.79778
0.32420	90447.75695	2763.79778
0.32326	90373.94708	2762.79778
0.32232	90300.27662	2761.79778
0.32138	90226.74491	2760.79778
0.32045	90153.35125	2759.79778
0.31952	90080.09500	2758.79778
0.31859	90006.97548	2757.79778
0.31767	89933.99203	2756.79778
0.31675	89861.14399	2755.79778
0.31583	89788.43072	2754.79778
0.31492	89715.85156	2753.79778
0.31401	89643.40586	2752.79778
0.31310	89571.09299	2751.79778
0.31219	89498.91232	2750.79778
0.31129	89426.86319	2749.79778
0.31039	89354.94499	2748.79778
0.30950	89283.15709	2747.79778
0.30861	89211.49887	2746.79778
0.30772	89139.96970	2745.79778
0.30683	89068.56898	2744.79778
0.30595	88997.29609	2743.79778
0.30507	88926.15041	2742.79778
0.30419	88855.13136	2741.79778
0.30332	88784.23832	2740.79778
0.30245	88713.47070	2739.79778
0.30158	88642.82791	2738.79778
0.30071	88572.30936	2737.79778
0.29985	88501.91445	2736.79778
0.29899	88431.64261	2735.79778
0.29814	88361.49325	2734.79778
0.29728	88291.46580	2733.79778
0.29643	88221.55969	2732.79778
0.29559	88151.77434	2731.79778
0.29474	88082.10918	2730.79778
0.29390	88012.56367	2729.79778
0.29306	87943.13723	2728.79778
0.29222	87873.82930	2727.79778
0.29139	87804.63934	2726.79778
0.29056	87735.56680	2725.79778
0.28973	87666.61112	2724.79778
0.28891	87597.77176	2723.79778
0.28809	87529.04819	2722.79778
0.28727	87460.43986	2721.79778
0.28645	87391.94624	2720.79778
0.28564	87323.56679	2719.79778
0.28482	87255.30100	2718.79778
0.28402	87187.14832	2717.79778
0.28321	87119.10825	2716.79778
0.28241	87051.18026	2715.79778
0.28161	86983.36384	2714.79778
0.28081	86915.65847	2713.79778
0.28001	86848.06363	2712.79778
0.27922	86780.57883	2711.79778
0.27843	86713.20356	2710.79778
0.27764	86645.93731	2709.79778
0.27686	86578.77959	2708.79778
0.27607	86511.72990	2707.79778
0.27529	86444.78775	2706.79778
0.27452	86377.95264	2705.79778
0.27374	86311.22409	2704.79778
0.27297	86244.60162	2703.79778
0.27220	86178.08473	2702.79778
0.27143	86111.67296	2701.79778
0.27067	86045.36582	2700.79778
0.26991	85979.16285	2699.79778
0.26915	85913.06356	2698.79778
0.26839	85847.06749	2697.79778
0.26763	85781.17417	2696.79778
0.26688	85715.38314	2695.79778
0.26613	85649.69394	2694.79778
0.26538	85584.10612	2693.79778
0.26464	85518.61920	2692.79778
0.26390	85453.23275	2691.79778
0.26315	85387.94631	2690.79778
0.26242	85322.75943	2689.79778
0.26168	85257.67166	2688.79778
0.26095	85192.68257	2687.79778
0.26022	85127.79171	2686.79778
0.25949	85062.99865	2685.79778
0.25876	84998.30294	2684.79778
0.25804	84933.70415	2683.79778
0.25731	84869.20186	2682.79778
0.25660	84804.79563	2681.79778
0.25588	84740.48504	2680.79778
0.25516	84676.26967	2679.79778
0.25445	84612.14909	2678.79778
0.25374	84548.12288	2677.79778
0.25303	84484.19062	2676.79778
0.25233	84420.35191	2675.79778
0.25162	84356.60633	2674.79778
0.25092	84292.95346	2673.79778
0.25022	84229.39291	2672.79778
0.24952	84165.92426	2671.79778
0.24883	84102.54711	2670.79778
0.24813	84039.26107	2669.79778
0.24744	83976.06572	2668.79778
0.24675	83912.96068	2667.79778
0.24607	83849.94555	2666.79778
0.24538	83787.01994	2665.79778
0.24470	83724.18346	2664.79778
0.24402	83661.43571	2663.79778
0.24334	83598.77632	2662.79778
0.24267	83536.20489	2661.79778
0.24199	83473.72106	2660.79778
0.24132	83411.32443	2659.79778
0.24065	83349.01462	2658.79778
0.23998	83286.79128	2657.79778
0.23932	83224.65401	2656.79778
0.23865	83162.60245	2655.79778
0.23799	83100.63623	2654.79778
0.23733	83038.75498	2653.79778
0.23667	82976.95833	2652.79778
0.23602	82915.24593	2651.79778
0.23537	82853.61740	2650.79778
0.23471	82792.07240	2649.79778
0.23406	82730.61055	2648.79778
0.23342	82669.23152	2647.79778
0.23277	82607.93493	2646.79778
0.23213	82546.72044	2645.79778
0.23148	82485.58771	2644.79778
0.23084	82424.53637	2643.79778
0.23021	82363.56609	2642.79778
0.22957	82302.67652	2641.79778
0.22894	82241.86731	2640.79778
0.22830	82181.13813	2639.79778
0.22767	82120.48864	2638.79778
0.22704	82059.91849	2637.79778
0.22642	81999.42736	2636.79778
0.22579	81939.01491	2635.79778
0.22517	81878.68080	2634.79778
0.22455	81818.42472	2633.79778
0.22393	81758.24632	2632.79778
0.22331	81698.14528	2631.79778
0.22269	81638.12128	2630.79778
0.22208	81578.17399	2629.79778
0.22147	81518.30310	2628.79778
0.22086	81458.50827	2627.79778
0.22025	81398.78920	2626.79778
0.21964	81339.14557	2625.79778
0.21904	81279.57706	2624.79778
0.21843	81220.08335	2623.79778
0.21783	81160.66414	2622.79778
0.21723	81101.31912	2621.79778
0.21663	81042.04798	2620.79778
0.21604	80982.85041	2619.79778
0.21544	80923.72610	2618.79778
0.21485	80864.67476	2617.79778
0.21426	80805.69608	2616.79778
0.21367	80746.78976	2615.79778
0.21308	80687.95550	2614.79778
0.21250	80629.19300	2613.79778
0.21191	80570.50197	2612.79778
0.21133	80511.88212	2611.79778
0.21075	80453.33315	2610.79778
0.21017	80394.85476	2609.79778
0.20959	80336.44668	2608.79778
0.20901	80278.10861	2607.79778
0.20844	80219.84026	2606.79778
0.20787	80161.64135	2605.79778
0.20730	80103.51160	2604.79778
0.20673	80045.45073	2603.79778
0.20616	79987.45844	2602.79778
0.20559	79929.53447	2601.79778
0.20503	79871.67854	2600.79778
0.20446	79813.89037	2599.79778
0.20390	79756.16967	2598.79778
0.20334	79698.51619	2597.79778
0.20278	79640.92965	2596.79778
0.20223	79583.40977	2595.79778
0.20167	79525.95629	2594.79778
0.20112	79468.56894	2593.79778
0.20056	79411.24746	2592.79778
0.20001	79353.99156	2591.79778
0.19946	79296.80101	2590.79778
0.19892	79239.67552	2589.79778
0.19837	79182.61484	2588.79778
0.19783	79125.61871	2587.79778
0.19728	79068.68686	2586.79778
0.19674	79011.81905	2585.79778
0.19620	78955.01502	2584.79778
0.19566	78898.27450	2583.79778
0.19512	78841.59726	2582.79778
0.19459	78784.98303	2581.79778
0.19405	78728.43156	2580.79778
0.19352	78671.94261	2579.79778
0.19299	78615.51592	2578.79778
0.19246	78559.15125	2577.79778
0.19193	78502.84835	2576.79778
0.19140	78446.60698	2575.79778
0.19088	78390.42690	2574.79778
0.19035	78334.30785	2573.79778
0.18983	78278.24961	2572.79778
0.18931	78222.25192	2571.79778
0.18879	78166.31456	2570.79778
0.18827	78110.43728	2569.79778
0.18775	78054.61985	2568.79778
0.18724	77998.86203	2567.79778
0.18672	77943.16358	2566.79778
0.18621	77887.52429	2565.79778
0.18570	77831.94390	2564.79778
0.18519	77776.42220	2563.79778
0.18468	77720.95895	2562.79778
0.18417	77665.55393	2561.79778
0.18366	77610.20691	2560.79778
0.18316	77554.91765	2559.79778
0.18265	77499.68595	2558.79778
0.18215	77444.51156	2557.79778
0.18165	77389.39428	2556.79778
0.18115	77334.33387	2555.79778
0.18065	77279.33012	2554.79778
0.18015	77224.38281	2553.79778
0.17966	77169.49172	2552.79778
0.17916	77114.65663	2551.79778
0.17867	77059.87733	2550.79778
0.17818	77005.15359	2549.79778
0.17769	76950.48522	2548.79778
0.17720	76895.87198	2547.79778
0.17671	76841.31368	2546.79778
0.17622	76786.81010	2545.79778
0.17573	76732.36102	2544.79778
0.17525	76677.96625	2543.79778
0.17477	76623.62557	2542.79778
0.17428	76569.33877	2541.79778
0.17380	76515.10565	2540.79778
0.17332	76460.92601	2539.79778
0.17285	76406.79964	2538.79778
0.17237	76352.72633	2537.79778
0.17189	76298.70589	2536.79778
0.17142	76244.73811	2535.79778
0.17094	76190.82280	2534.79778
0.17047	76136.95975	2533.79778
0.17000	76083.14876	2532.79778
0.16953	76029.38965	2531.79778
0.16906	75975.68220	2530.79778
0.16859	75922.02623	2529.79778
0.16813	75868.42154	2528.79778
0.16766	75814.86794	2527.79778
0.16720	75761.36524	2526.79778
0.16673	75707.91324	2525.79778
0.16627	75654.51175	2524.79778
0.16581	75601.16058	2523.79778
0.16535	75547.85954	2522.79778
0.16489	75494.60845	2521.79778
0.16443	75441.40712	2520.79778
0.16398	75388.25536	2519.79778
0.16352	75335.15298	2518.79778
0.16307	75282.09981	2517.79778
0.16261	75229.09564	2516.79778
0.16216	75176.14032	2515.79778
0.16171	75123.23364	2514.79778
0.16126	75070.37544	2513.79778
0.16081	75017.56552	2512.79778
0.16036	74964.80371	2511.79778
0.15992	74912.08984	2510.79778
0.15947	74859.42371	2509.79778
0.15903	74806.80516	2508.79778
0.15858	74754.23401	2507.79778
0.15814	74701.71009	2506.79778
0.15770	74649.23321	2505.79778
0.15726	74596.80321	2504.79778
0.15682	74544.41990	2503.79778
0.15638	74492.08313	2502.79778
0.15594	74439.79272	2501.79778
0.15551	74387.54849	2500.79778
0.15507	74335.35027	2499.79778
0.15464	74283.19791	2498.79778
0.15420	74231.09122	2497.79778
0.15377	74179.03004	2496.79778
0.15334	74127.01421	2495.79778
0.15291	74075.04355	2494.79778
0.15248	74023.11790	2493.79778
0.15205	73971.23710	2492.79778
0.15163	73919.40099	2491.79778
0.15120	73867.60939	2490.79778
0.15077	73815.86215	2489.79778
0.15035	73764.15910	2488.79778
0.14993	73712.50009	2487.79778
0.14950	73660.88495	2486.79778
0.14908	73609.31353	2485.79778
0.14866	73557.78565	2484.79778
0.14824	73506.30118	2483.79778
0.14782	73454.85994	2482.79778
0.14741	73403.46178	2481.79778
0.14699	73352.10655	2480.79778
0.14657	73300.79409	2479.79778
0.14616	73249.52424	2478.79778
0.14574	73198.29685	2477.79778
0.14533	73147.11176	2476.79778
0.14492	73095.96883	2475.79778
0.14451	73044.86790	2474.79778
0.14410	72993.80882	2473.79778
0.14369	72942.79144	2472.79778
0.14328	72891.81560	2471.79778
0.14287	72840.88116	2470.79778
0.14246	72789.98797	2469.79778
0.14206	72739.13588	2468.79778
0.14165	72688.32474	2467.79778
0.14125	72637.55441	2466.79778
0.14085	72586.82474	2465.79778
0.14044	72536.13557	2464.79778
0.14004	72485.48678	2463.79778
0.13964	72434.87820	2462.79778
0.13924	72384.30970	2461.79778
0.13884	72333.78114	2460.79778
0.13844	72283.29237	2459.79778
0.13805	72232.84324	2458.79778
0.13765	72182.43363	2457.79778
0.13725	72132.06337	2456.79778
0.13686	72081.73234	2455.79778
0.13646	72031.44040	2454.79778
0.13607	71981.18740	2453.79778
0.13568	71930.97320	2452.79778
0.13529	71880.79767	2451.79778
0.13490	71830.66067	2450.79778
0.13451	71780.56206	2449.79778
0.13412	71730.50171	2448.79778
0.13373	71680.47947	2447.79778
0.13334	71630.49521	2446.79778
0.13295	71580.54880	2445.79778
0.13257	71530.64010	2444.79778
0.13218	71480.76898	2443.79778
0.13180	71430.93530	2442.79778
0.13141	71381.13893	2441.79778
0.13103	71331.37974	2440.79778
0.13065	71281.65760	2439.79778
