Mole fraction of liquid	Heat per mole [J]	Temperature [K]
1.00000	1.32939E5	3110.42271
0.99998	1.32934E5	3110.32708
0.99562	1.32712E5	3109.32708
0.99128	1.32490E5	3108.32708
0.98697	1.32270E5	3107.32708
0.98269	1.32051E5	3106.32708
0.97843	1.31833E5	3105.32708
0.97420	1.31616E5	3104.32708
0.96999	1.31400E5	3103.32708
0.96581	1.31186E5	3102.32708
0.96165	1.30972E5	3101.32708
0.95752	1.30760E5	3100.32708
0.95341	1.30548E5	3099.32708
0.94932	1.30338E5	3098.32708
0.94526	1.30128E5	3097.32708
0.94122	1.29920E5	3096.32708
0.93721	1.29713E5	3095.32708
0.93321	1.29506E5	3094.32708
0.92924	1.29301E5	3093.32708
0.92530	1.29097E5	3092.32708
0.92137	1.28893E5	3091.32708
0.91747	1.28691E5	3090.32708
0.91359	1.28490E5	3089.32708
0.90974	1.28289E5	3088.32708
0.90590	1.28090E5	3087.32708
0.90209	1.27892E5	3086.32708
0.89830	1.27694E5	3085.32708
0.89453	1.27498E5	3084.32708
0.89078	1.27302E5	3083.32708
0.88705	1.27107E5	3082.32708
0.88334	1.26914E5	3081.32708
0.87966	1.26721E5	3080.32708
0.87599	1.26529E5	3079.32708
0.87235	1.26338E5	3078.32708
0.86873	1.26148E5	3077.32708
0.86512	1.25959E5	3076.32708
0.86154	1.25770E5	3075.32708
0.85798	1.25583E5	3074.32708
0.85443	1.25396E5	3073.32708
0.85091	1.25211E5	3072.32708
0.84741	1.25026E5	3071.32708
0.84392	1.24842E5	3070.32708
0.84046	1.24658E5	3069.32708
0.83701	1.24476E5	3068.32708
0.83358	1.24295E5	3067.32708
0.83018	1.24114E5	3066.32708
0.82679	1.23934E5	3065.32708
0.82342	1.23755E5	3064.32708
0.82006	1.23577E5	3063.32708
0.81673	1.23399E5	3062.32708
0.81341	1.23223E5	3061.32708
0.81012	1.23047E5	3060.32708
0.80684	1.22872E5	3059.32708
0.80358	1.22697E5	3058.32708
0.80033	1.22524E5	3057.32708
0.79710	1.22351E5	3056.32708
0.79390	1.22179E5	3055.32708
0.79070	1.22008E5	3054.32708
0.78753	1.21837E5	3053.32708
0.78437	1.21667E5	3052.32708
0.78123	1.21498E5	3051.32708
0.77811	1.21330E5	3050.32708
0.77500	1.21163E5	3049.32708
0.77191	1.20996E5	3048.32708
0.76884	1.20830E5	3047.32708
0.76578	1.20664E5	3046.32708
0.76274	1.20500E5	3045.32708
0.75971	1.20336E5	3044.32708
0.75671	1.20172E5	3043.32708
0.75371	1.20010E5	3042.32708
0.75074	1.19848E5	3041.32708
0.74777	1.19686E5	3040.32708
0.74483	1.19526E5	3039.32708
0.74190	1.19366E5	3038.32708
0.73898	1.19207E5	3037.32708
0.73608	1.19048E5	3036.32708
0.73320	1.18890E5	3035.32708
0.73033	1.18733E5	3034.32708
0.72748	1.18577E5	3033.32708
0.72464	1.18421E5	3032.32708
0.72181	1.18265E5	3031.32708
0.71900	1.18111E5	3030.32708
0.71621	1.17957E5	3029.32708
0.71343	1.17803E5	3028.32708
0.71066	1.17650E5	3027.32708
0.70791	1.17498E5	3026.32708
0.70517	1.17347E5	3025.32708
0.70245	1.17196E5	3024.32708
0.69974	1.17045E5	3023.32708
0.69704	1.16896E5	3022.32708
0.69436	1.16746E5	3021.32708
0.69169	1.16598E5	3020.32708
0.68904	1.16450E5	3019.32708
0.68640	1.16303E5	3018.32708
0.68377	1.16156E5	3017.32708
0.68115	1.16010E5	3016.32708
0.67855	1.15864E5	3015.32708
0.67597	1.15719E5	3014.32708
0.67339	1.15574E5	3013.32708
0.67083	1.15430E5	3012.32708
0.66828	1.15287E5	3011.32708
0.66575	1.15144E5	3010.32708
0.66322	1.15002E5	3009.32708
0.66071	1.14860E5	3008.32708
0.65821	1.14719E5	3007.32708
0.65573	1.14578E5	3006.32708
0.65326	1.14438E5	3005.32708
0.65080	1.14299E5	3004.32708
0.64835	1.14160E5	3003.32708
0.64591	1.14021E5	3002.32708
0.64349	1.13883E5	3001.32708
0.64108	1.13745E5	3000.32708
0.63868	1.13608E5	2999.32708
0.63629	1.13472E5	2998.32708
0.63391	1.13336E5	2997.32708
0.63155	1.13201E5	2996.32708
0.62920	1.13066E5	2995.32708
0.62685	1.12931E5	2994.32708
0.62452	1.12797E5	2993.32708
0.62221	1.12664E5	2992.32708
0.61990	1.12531E5	2991.32708
0.61760	1.12398E5	2990.32708
0.61532	1.12266E5	2989.32708
0.61305	1.12135E5	2988.32708
0.61078	1.12004E5	2987.32708
0.60853	1.11873E5	2986.32708
0.60629	1.11743E5	2985.32708
0.60406	1.11613E5	2984.32708
0.60185	1.11484E5	2983.32708
0.59964	1.11355E5	2982.32708
0.59744	1.11227E5	2981.32708
0.59525	1.11099E5	2980.32708
0.59308	1.10972E5	2979.32708
0.59091	1.10845E5	2978.32708
0.58876	1.10718E5	2977.32708
0.58661	1.10592E5	2976.32708
0.58448	1.10467E5	2975.32708
0.58235	1.10341E5	2974.32708
0.58024	1.10217E5	2973.32708
0.57814	1.10092E5	2972.32708
0.57604	1.09968E5	2971.32708
0.57396	1.09845E5	2970.32708
0.57188	1.09722E5	2969.32708
0.56982	1.09599E5	2968.32708
0.56776	1.09477E5	2967.32708
0.56572	1.09355E5	2966.32708
0.56368	1.09234E5	2965.32708
0.56166	1.09113E5	2964.32708
0.55964	1.08992E5	2963.32708
0.55763	1.08872E5	2962.32708
0.55564	1.08752E5	2961.32708
0.55365	1.08633E5	2960.32708
0.55167	1.08514E5	2959.32708
0.54970	1.08396E5	2958.32708
0.54774	1.08277E5	2957.32708
0.54579	1.08160E5	2956.32708
0.54385	1.08042E5	2955.32708
0.54191	1.07925E5	2954.32708
0.53999	1.07808E5	2953.32708
0.53807	1.07692E5	2952.32708
0.53617	1.07576E5	2951.32708
0.53427	1.07461E5	2950.32708
0.53238	1.07346E5	2949.32708
0.53050	1.07231E5	2948.32708
0.52863	1.07117E5	2947.32708
0.52677	1.07002E5	2946.32708
0.52491	1.06889E5	2945.32708
0.52307	1.06775E5	2944.32708
0.52123	1.06663E5	2943.32708
0.51940	1.06550E5	2942.32708
0.51758	1.06438E5	2941.32708
0.51577	1.06326E5	2940.32708
0.51396	1.06214E5	2939.32708
0.51217	1.06103E5	2938.32708
0.51038	1.05992E5	2937.32708
0.50860	1.05882E5	2936.32708
0.50683	1.05772E5	2935.32708
0.50506	1.05662E5	2934.32708
0.50331	1.05552E5	2933.32708
0.50156	1.05443E5	2932.32708
0.49982	1.05334E5	2931.32708
0.49809	1.05226E5	2930.32708
0.49636	1.05118E5	2929.32708
0.49465	1.05010E5	2928.32708
0.49294	1.04902E5	2927.32708
0.49124	1.04795E5	2926.32708
0.48954	1.04688E5	2925.32708
0.48786	1.04582E5	2924.32708
0.48618	1.04475E5	2923.32708
0.48451	1.04369E5	2922.32708
0.48284	1.04264E5	2921.32708
0.48119	1.04159E5	2920.32708
0.47954	1.04054E5	2919.32708
0.47789	1.03949E5	2918.32708
0.47626	1.03844E5	2917.32708
0.47463	1.03740E5	2916.32708
0.47301	1.03637E5	2915.32708
0.47140	1.03533E5	2914.32708
0.46979	1.03430E5	2913.32708
0.46819	1.03327E5	2912.32708
0.46660	1.03225E5	2911.32708
0.46501	1.03122E5	2910.32708
0.46344	1.03020E5	2909.32708
0.46186	1.02919E5	2908.32708
0.46030	1.02817E5	2907.32708
0.45874	1.02716E5	2906.32708
0.45719	1.02615E5	2905.32708
0.45565	1.02515E5	2904.32708
0.45411	1.02414E5	2903.32708
0.45258	1.02314E5	2902.32708
0.45105	1.02215E5	2901.32708
0.44954	1.02115E5	2900.32708
0.44802	1.02016E5	2899.32708
0.44652	1.01917E5	2898.32708
0.44502	1.01818E5	2897.32708
0.44353	1.01720E5	2896.32708
0.44204	1.01622E5	2895.32708
0.44056	1.01524E5	2894.32708
0.43909	1.01427E5	2893.32708
0.43762	1.01329E5	2892.32708
0.43616	1.01232E5	2891.32708
0.43471	1.01136E5	2890.32708
0.43326	1.01039E5	2889.32708
0.43182	1.00943E5	2888.32708
0.43038	1.00847E5	2887.32708
0.42895	1.00751E5	2886.32708
0.42753	1.00656E5	2885.32708
0.42611	1.00560E5	2884.32708
0.42470	1.00465E5	2883.32708
0.42329	1.00371E5	2882.32708
0.42189	1.00276E5	2881.32708
0.42050	1.00182E5	2880.32708
0.41911	1.00088E5	2879.32708
0.41773	99994.09189	2878.32708
0.41635	99900.57734	2877.32708
0.41498	99807.30334	2876.32708
0.41361	99714.26852	2875.32708
0.41225	99621.47154	2874.32708
0.41090	99528.91104	2873.32708
0.40955	99436.58569	2872.32708
0.40821	99344.49416	2871.32708
0.40687	99252.63514	2870.32708
0.40554	99161.00731	2869.32708
0.40421	99069.60937	2868.32708
0.40289	98978.44003	2867.32708
0.40158	98887.49802	2866.32708
0.40027	98796.78205	2865.32708
0.39896	98706.29086	2864.32708
0.39766	98616.02320	2863.32708
0.39637	98525.97781	2862.32708
0.39508	98436.15346	2861.32708
0.39380	98346.54892	2860.32708
0.39252	98257.16296	2859.32708
0.39125	98167.99437	2858.32708
0.38998	98079.04195	2857.32708
0.38871	97990.30449	2856.32708
0.38746	97901.78081	2855.32708
0.38620	97813.46972	2854.32708
0.38496	97725.37005	2853.32708
0.38371	97637.48064	2852.32708
0.38248	97549.80032	2851.32708
0.38124	97462.32795	2850.32708
0.38002	97375.06238	2849.32708
0.37879	97288.00248	2848.32708
0.37758	97201.14712	2847.32708
0.37636	97114.49518	2846.32708
0.37516	97028.04555	2845.32708
0.37395	96941.79713	2844.32708
0.37275	96855.74881	2843.32708
0.37156	96769.89951	2842.32708
0.37037	96684.24814	2841.32708
0.36919	96598.79363	2840.32708
0.36801	96513.53490	2839.32708
0.36683	96428.47091	2838.32708
0.36566	96343.60058	2837.32708
0.36450	96258.92288	2836.32708
0.36334	96174.43677	2835.32708
0.36218	96090.14120	2834.32708
0.36103	96006.03516	2833.32708
0.35988	95922.11762	2832.32708
0.35874	95838.38757	2831.32708
0.35760	95754.84400	2830.32708
0.35647	95671.48591	2829.32708
0.35534	95588.31231	2828.32708
0.35421	95505.32221	2827.32708
0.35309	95422.51463	2826.32708
0.35198	95339.88859	2825.32708
0.35086	95257.44313	2824.32708
0.34976	95175.17729	2823.32708
0.34865	95093.09011	2822.32708
0.34755	95011.18063	2821.32708
0.34646	94929.44793	2820.32708
0.34537	94847.89105	2819.32708
0.34428	94766.50907	2818.32708
0.34320	94685.30107	2817.32708
0.34212	94604.26612	2816.32708
0.34105	94523.40332	2815.32708
0.33998	94442.71174	2814.32708
0.33891	94362.19050	2813.32708
0.33785	94281.83870	2812.32708
0.33679	94201.65545	2811.32708
0.33574	94121.63986	2810.32708
0.33469	94041.79105	2809.32708
0.33365	93962.10816	2808.32708
0.33260	93882.59031	2807.32708
0.33157	93803.23664	2806.32708
0.33053	93724.04630	2805.32708
0.32950	93645.01844	2804.32708
0.32848	93566.15221	2803.32708
0.32746	93487.44677	2802.32708
0.32644	93408.90128	2801.32708
0.32542	93330.51492	2800.32708
0.32441	93252.28687	2799.32708
0.32341	93174.21629	2798.32708
0.32240	93096.30239	2797.32708
0.32140	93018.54435	2796.32708
0.32041	92940.94137	2795.32708
0.31942	92863.49264	2794.32708
0.31843	92786.19738	2793.32708
0.31745	92709.05480	2792.32708
0.31646	92632.06412	2791.32708
0.31549	92555.22455	2790.32708
0.31451	92478.53532	2789.32708
0.31354	92401.99566	2788.32708
0.31258	92325.60481	2787.32708
0.31162	92249.36202	2786.32708
0.31066	92173.26651	2785.32708
0.30970	92097.31756	2784.32708
0.30875	92021.51440	2783.32708
0.30780	91945.85630	2782.32708
0.30686	91870.34253	2781.32708
0.30591	91794.97235	2780.32708
0.30498	91719.74503	2779.32708
0.30404	91644.65986	2778.32708
0.30311	91569.71611	2777.32708
0.30218	91494.91308	2776.32708
0.30126	91420.25005	2775.32708
0.30034	91345.72631	2774.32708
0.29942	91271.34118	2773.32708
0.29851	91197.09394	2772.32708
0.29759	91122.98392	2771.32708
0.29669	91049.01042	2770.32708
0.29578	90975.17276	2769.32708
0.29488	90901.47026	2768.32708
0.29398	90827.90224	2767.32708
0.29309	90754.46804	2766.32708
0.29220	90681.16699	2765.32708
0.29131	90607.99842	2764.32708
0.29042	90534.96168	2763.32708
0.28954	90462.05611	2762.32708
0.28866	90389.28107	2761.32708
0.28779	90316.63589	2760.32708
0.28691	90244.11995	2759.32708
0.28604	90171.73260	2758.32708
0.28518	90099.47321	2757.32708
0.28432	90027.34115	2756.32708
0.28345	89955.33579	2755.32708
0.28260	89883.45650	2754.32708
0.28174	89811.70267	2753.32708
0.28089	89740.07368	2752.32708
0.28004	89668.56891	2751.32708
0.27920	89597.18777	2750.32708
0.27836	89525.92964	2749.32708
0.27752	89454.79392	2748.32708
0.27668	89383.78001	2747.32708
0.27585	89312.88733	2746.32708
0.27502	89242.11527	2745.32708
0.27419	89171.46326	2744.32708
0.27337	89100.93071	2743.32708
0.27254	89030.51703	2742.32708
0.27173	88960.22166	2741.32708
0.27091	88890.04402	2740.32708
0.27010	88819.98353	2739.32708
0.26929	88750.03964	2738.32708
0.26848	88680.21177	2737.32708
0.26767	88610.49937	2736.32708
0.26687	88540.90189	2735.32708
0.26607	88471.41876	2734.32708
0.26528	88402.04945	2733.32708
0.26448	88332.79339	2732.32708
0.26369	88263.65006	2731.32708
0.26290	88194.61890	2730.32708
0.26212	88125.69939	2729.32708
0.26133	88056.89098	2728.32708
0.26055	87988.19315	2727.32708
0.25978	87919.60536	2726.32708
0.25900	87851.12710	2725.32708
0.25823	87782.75784	2724.32708
0.25746	87714.49707	2723.32708
0.25669	87646.34426	2722.32708
0.25593	87578.29891	2721.32708
0.25517	87510.36051	2720.32708
0.25441	87442.52854	2719.32708
0.25365	87374.80251	2718.32708
0.25290	87307.18191	2717.32708
0.25215	87239.66625	2716.32708
0.25140	87172.25503	2715.32708
0.25065	87104.94776	2714.32708
0.24991	87037.74396	2713.32708
0.24916	86970.64312	2712.32708
0.24843	86903.64478	2711.32708
0.24769	86836.74844	2710.32708
0.24695	86769.95364	2709.32708
0.24622	86703.25989	2708.32708
0.24549	86636.66672	2707.32708
0.24477	86570.17367	2706.32708
0.24404	86503.78026	2705.32708
0.24332	86437.48604	2704.32708
0.24260	86371.29053	2703.32708
0.24188	86305.19329	2702.32708
0.24117	86239.19384	2701.32708
0.24046	86173.29175	2700.32708
0.23975	86107.48655	2699.32708
0.23904	86041.77781	2698.32708
0.23833	85976.16506	2697.32708
0.23763	85910.64788	2696.32708
0.23693	85845.22581	2695.32708
0.23623	85779.89842	2694.32708
0.23553	85714.66527	2693.32708
0.23484	85649.52593	2692.32708
0.23415	85584.47996	2691.32708
0.23346	85519.52695	2690.32708
0.23277	85454.66645	2689.32708
0.23209	85389.89806	2688.32708
0.23140	85325.22133	2687.32708
0.23072	85260.63586	2686.32708
0.23004	85196.14124	2685.32708
0.22937	85131.73703	2684.32708
0.22869	85067.42284	2683.32708
0.22802	85003.19824	2682.32708
0.22735	84939.06284	2681.32708
0.22668	84875.01623	2680.32708
0.22602	84811.05800	2679.32708
0.22536	84747.18775	2678.32708
0.22469	84683.40509	2677.32708
0.22403	84619.70962	2676.32708
0.22338	84556.10094	2675.32708
0.22272	84492.57866	2674.32708
0.22207	84429.14239	2673.32708
0.22142	84365.79174	2672.32708
0.22077	84302.52633	2671.32708
0.22012	84239.34577	2670.32708
0.21948	84176.24969	2669.32708
0.21884	84113.23770	2668.32708
0.21820	84050.30942	2667.32708
0.21756	83987.46448	2666.32708
0.21692	83924.70251	2665.32708
0.21629	83862.02313	2664.32708
0.21565	83799.42598	2663.32708
0.21502	83736.91069	2662.32708
0.21439	83674.47689	2661.32708
0.21377	83612.12422	2660.32708
0.21314	83549.85232	2659.32708
0.21252	83487.66083	2658.32708
0.21190	83425.54940	2657.32708
0.21128	83363.51766	2656.32708
0.21066	83301.56526	2655.32708
0.21005	83239.69186	2654.32708
0.20943	83177.89710	2653.32708
0.20882	83116.18064	2652.32708
0.20821	83054.54212	2651.32708
0.20761	82992.98121	2650.32708
0.20700	82931.49757	2649.32708
0.20640	82870.09084	2648.32708
0.20579	82808.76070	2647.32708
0.20519	82747.50681	2646.32708
0.20460	82686.32884	2645.32708
0.20400	82625.22644	2644.32708
0.20340	82564.19929	2643.32708
0.20281	82503.24706	2642.32708
0.20222	82442.36943	2641.32708
0.20163	82381.56606	2640.32708
0.20104	82320.83663	2639.32708
0.20046	82260.18082	2638.32708
0.19987	82199.59830	2637.32708
0.19929	82139.08877	2636.32708
0.19871	82078.65190	2635.32708
0.19813	82018.28738	2634.32708
0.19755	81957.99488	2633.32708
0.19698	81897.77411	2632.32708
0.19641	81837.62475	2631.32708
0.19583	81777.54648	2630.32708
0.19526	81717.53901	2629.32708
0.19469	81657.60203	2628.32708
0.19413	81597.73523	2627.32708
0.19356	81537.93831	2626.32708
0.19300	81478.21096	2625.32708
0.19244	81418.55290	2624.32708
0.19188	81358.96382	2623.32708
0.19132	81299.44342	2622.32708
0.19076	81239.99141	2621.32708
0.19021	81180.60750	2620.32708
0.18965	81121.29139	2619.32708
0.18910	81062.04280	2618.32708
0.18855	81002.86144	2617.32708
0.18800	80943.74701	2616.32708
0.18745	80884.69924	2615.32708
0.18691	80825.71784	2614.32708
0.18636	80766.80252	2613.32708
0.18582	80707.95301	2612.32708
0.18528	80649.16902	2611.32708
0.18474	80590.45028	2610.32708
0.18420	80531.79651	2609.32708
0.18367	80473.20744	2608.32708
0.18313	80414.68278	2607.32708
0.18260	80356.22227	2606.32708
0.18207	80297.82564	2605.32708
0.18154	80239.49261	2604.32708
0.18101	80181.22291	2603.32708
0.18048	80123.01629	2602.32708
0.17996	80064.87248	2601.32708
0.17943	80006.79120	2600.32708
0.17891	79948.77219	2599.32708
0.17839	79890.81521	2598.32708
0.17787	79832.91997	2597.32708
0.17735	79775.08623	2596.32708
0.17683	79717.31373	2595.32708
0.17632	79659.60221	2594.32708
0.17580	79601.95141	2593.32708
0.17529	79544.36108	2592.32708
0.17478	79486.83097	2591.32708
0.17427	79429.36083	2590.32708
0.17376	79371.95040	2589.32708
0.17326	79314.59945	2588.32708
0.17275	79257.30771	2587.32708
0.17225	79200.07494	2586.32708
0.17175	79142.90090	2585.32708
0.17124	79085.78535	2584.32708
0.17074	79028.72803	2583.32708
0.17025	78971.72872	2582.32708
0.16975	78914.78716	2581.32708
0.16925	78857.90313	2580.32708
0.16876	78801.07637	2579.32708
0.16827	78744.30666	2578.32708
0.16777	78687.59376	2577.32708
0.16728	78630.93744	2576.32708
0.16680	78574.33745	2575.32708
0.16631	78517.79358	2574.32708
0.16582	78461.30558	2573.32708
0.16534	78404.87323	2572.32708
0.16485	78348.49630	2571.32708
0.16437	78292.17456	2570.32708
0.16389	78235.90778	2569.32708
0.16341	78179.69574	2568.32708
0.16293	78123.53822	2567.32708
0.16245	78067.43498	2566.32708
0.16198	78011.38582	2565.32708
0.16150	77955.39050	2564.32708
0.16103	77899.44881	2563.32708
0.16056	77843.56053	2562.32708
0.16009	77787.72544	2561.32708
0.15962	77731.94332	2560.32708
0.15915	77676.21396	2559.32708
0.15868	77620.53714	2558.32708
0.15822	77564.91265	2557.32708
0.15775	77509.34028	2556.32708
0.15729	77453.81981	2555.32708
0.15682	77398.35103	2554.32708
0.15636	77342.93373	2553.32708
0.15590	77287.56771	2552.32708
0.15545	77232.25275	2551.32708
0.15499	77176.98865	2550.32708
0.15453	77121.77521	2549.32708
0.15408	77066.61221	2548.32708
0.15362	77011.49946	2547.32708
0.15317	76956.43675	2546.32708
0.15272	76901.42388	2545.32708
0.15227	76846.46064	2544.32708
0.15182	76791.54685	2543.32708
0.15137	76736.68229	2542.32708
0.15092	76681.86677	2541.32708
0.15048	76627.10009	2540.32708
0.15003	76572.38206	2539.32708
0.14959	76517.71248	2538.32708
0.14915	76463.09115	2537.32708
0.14870	76408.51789	2536.32708
0.14826	76353.99250	2535.32708
0.14782	76299.51478	2534.32708
0.14739	76245.08454	2533.32708
0.14695	76190.70160	2532.32708
0.14651	76136.36577	2531.32708
0.14608	76082.07685	2530.32708
0.14565	76027.83466	2529.32708
0.14521	75973.63901	2528.32708
0.14478	75919.48972	2527.32708
0.14435	75865.38660	2526.32708
0.14392	75811.32947	2525.32708
0.14349	75757.31813	2524.32708
0.14306	75703.35242	2523.32708
0.14264	75649.43214	2522.32708
0.14221	75595.55712	2521.32708
0.14179	75541.72718	2520.32708
0.14137	75487.94213	2519.32708
0.14094	75434.20180	2518.32708
0.14052	75380.50601	2517.32708
0.14010	75326.85458	2516.32708
0.13968	75273.24734	2515.32708
0.13926	75219.68411	2514.32708
0.13885	75166.16471	2513.32708
0.13843	75112.68897	2512.32708
0.13802	75059.25672	2511.32708
0.13760	75005.86779	2510.32708
0.13719	74952.52199	2509.32708
0.13678	74899.21917	2508.32708
0.13636	74845.95915	2507.32708
0.13595	74792.74176	2506.32708
0.13555	74739.56683	2505.32708
0.13514	74686.43420	2504.32708
0.13473	74633.34369	2503.32708
0.13432	74580.29514	2502.32708
0.13392	74527.28839	2501.32708
0.13351	74474.32326	2500.32708
0.13311	74421.39959	2499.32708
0.13271	74368.51722	2498.32708
0.13230	74315.67598	2497.32708
0.13190	74262.87572	2496.32708
0.13150	74210.11626	2495.32708
0.13110	74157.39746	2494.32708
0.13071	74104.71913	2493.32708
0.13031	74052.08114	2492.32708
0.12991	73999.48331	2491.32708
0.12952	73946.92550	2490.32708
0.12912	73894.40753	2489.32708
0.12873	73841.92925	2488.32708
0.12834	73789.49051	2487.32708
0.12794	73737.09114	2486.32708
0.12755	73684.73100	2485.32708
0.12716	73632.40993	2484.32708
0.12677	73580.12776	2483.32708
0.12638	73527.88436	2482.32708
0.12600	73475.67956	2481.32708
0.12561	73423.51322	2480.32708
0.12522	73371.38517	2479.32708
0.12484	73319.29527	2478.32708
0.12445	73267.24337	2477.32708
0.12407	73215.22931	2476.32708
0.12369	73163.25296	2475.32708
0.12331	73111.31414	2474.32708
0.12293	73059.41273	2473.32708
0.12255	73007.54857	2472.32708
0.12217	72955.72150	2471.32708
0.12179	72903.93139	2470.32708
0.12141	72852.17809	2469.32708
0.12103	72800.46145	2468.32708
0.12066	72748.78133	2467.32708
0.12028	72697.13758	2466.32708
0.11991	72645.53005	2465.32708
0.11953	72593.95860	2464.32708
0.11916	72542.42309	2463.32708
0.11879	72490.92338	2462.32708
0.11842	72439.45931	2461.32708
0.11805	72388.03076	2460.32708
0.11768	72336.63757	2459.32708
0.11731	72285.27962	2458.32708
0.11694	72233.95674	2457.32708
0.11657	72182.66881	2456.32708
0.11620	72131.41569	2455.32708
0.11584	72080.19723	2454.32708
