Mole fraction of liquid	Heat per mole [J]	Temperature [K]
1.00000	1.33296E5	3112.65921
0.99998	1.33290E5	3112.56358
0.99558	1.33066E5	3111.56358
0.99121	1.32843E5	3110.56358
0.98687	1.32622E5	3109.56358
0.98255	1.32401E5	3108.56358
0.97826	1.32181E5	3107.56358
0.97399	1.31963E5	3106.56358
0.96975	1.31746E5	3105.56358
0.96553	1.31530E5	3104.56358
0.96134	1.31314E5	3103.56358
0.95717	1.31100E5	3102.56358
0.95303	1.30888E5	3101.56358
0.94891	1.30676E5	3100.56358
0.94481	1.30465E5	3099.56358
0.94074	1.30255E5	3098.56358
0.93670	1.30046E5	3097.56358
0.93267	1.29839E5	3096.56358
0.92867	1.29632E5	3095.56358
0.92470	1.29426E5	3094.56358
0.92074	1.29222E5	3093.56358
0.91681	1.29018E5	3092.56358
0.91290	1.28816E5	3091.56358
0.90902	1.28614E5	3090.56358
0.90515	1.28413E5	3089.56358
0.90131	1.28214E5	3088.56358
0.89749	1.28015E5	3087.56358
0.89369	1.27817E5	3086.56358
0.88992	1.27620E5	3085.56358
0.88616	1.27424E5	3084.56358
0.88243	1.27229E5	3083.56358
0.87872	1.27035E5	3082.56358
0.87503	1.26842E5	3081.56358
0.87136	1.26650E5	3080.56358
0.86771	1.26459E5	3079.56358
0.86408	1.26268E5	3078.56358
0.86047	1.26079E5	3077.56358
0.85688	1.25890E5	3076.56358
0.85332	1.25703E5	3075.56358
0.84977	1.25516E5	3074.56358
0.84624	1.25330E5	3073.56358
0.84273	1.25145E5	3072.56358
0.83924	1.24961E5	3071.56358
0.83577	1.24777E5	3070.56358
0.83232	1.24595E5	3069.56358
0.82889	1.24413E5	3068.56358
0.82548	1.24232E5	3067.56358
0.82209	1.24052E5	3066.56358
0.81872	1.23873E5	3065.56358
0.81536	1.23694E5	3064.56358
0.81202	1.23516E5	3063.56358
0.80870	1.23340E5	3062.56358
0.80540	1.23164E5	3061.56358
0.80212	1.22988E5	3060.56358
0.79886	1.22814E5	3059.56358
0.79561	1.22640E5	3058.56358
0.79238	1.22467E5	3057.56358
0.78917	1.22295E5	3056.56358
0.78597	1.22124E5	3055.56358
0.78280	1.21953E5	3054.56358
0.77964	1.21783E5	3053.56358
0.77650	1.21614E5	3052.56358
0.77337	1.21445E5	3051.56358
0.77026	1.21278E5	3050.56358
0.76717	1.21111E5	3049.56358
0.76409	1.20944E5	3048.56358
0.76103	1.20779E5	3047.56358
0.75799	1.20614E5	3046.56358
0.75497	1.20450E5	3045.56358
0.75196	1.20286E5	3044.56358
0.74896	1.20124E5	3043.56358
0.74598	1.19962E5	3042.56358
0.74302	1.19800E5	3041.56358
0.74007	1.19640E5	3040.56358
0.73714	1.19480E5	3039.56358
0.73423	1.19320E5	3038.56358
0.73133	1.19162E5	3037.56358
0.72844	1.19004E5	3036.56358
0.72557	1.18846E5	3035.56358
0.72272	1.18689E5	3034.56358
0.71988	1.18533E5	3033.56358
0.71705	1.18378E5	3032.56358
0.71424	1.18223E5	3031.56358
0.71145	1.18069E5	3030.56358
0.70867	1.17916E5	3029.56358
0.70590	1.17763E5	3028.56358
0.70315	1.17610E5	3027.56358
0.70041	1.17459E5	3026.56358
0.69769	1.17308E5	3025.56358
0.69498	1.17157E5	3024.56358
0.69228	1.17008E5	3023.56358
0.68960	1.16858E5	3022.56358
0.68694	1.16710E5	3021.56358
0.68428	1.16562E5	3020.56358
0.68164	1.16414E5	3019.56358
0.67901	1.16267E5	3018.56358
0.67640	1.16121E5	3017.56358
0.67380	1.15975E5	3016.56358
0.67121	1.15830E5	3015.56358
0.66864	1.15686E5	3014.56358
0.66608	1.15542E5	3013.56358
0.66353	1.15398E5	3012.56358
0.66100	1.15255E5	3011.56358
0.65848	1.15113E5	3010.56358
0.65597	1.14971E5	3009.56358
0.65347	1.14830E5	3008.56358
0.65099	1.14689E5	3007.56358
0.64851	1.14549E5	3006.56358
0.64606	1.14409E5	3005.56358
0.64361	1.14270E5	3004.56358
0.64118	1.14132E5	3003.56358
0.63875	1.13994E5	3002.56358
0.63634	1.13856E5	3001.56358
0.63394	1.13719E5	3000.56358
0.63156	1.13582E5	2999.56358
0.62918	1.13446E5	2998.56358
0.62682	1.13311E5	2997.56358
0.62447	1.13176E5	2996.56358
0.62213	1.13041E5	2995.56358
0.61980	1.12907E5	2994.56358
0.61749	1.12774E5	2993.56358
0.61518	1.12641E5	2992.56358
0.61289	1.12508E5	2991.56358
0.61061	1.12376E5	2990.56358
0.60834	1.12245E5	2989.56358
0.60608	1.12114E5	2988.56358
0.60383	1.11983E5	2987.56358
0.60159	1.11853E5	2986.56358
0.59936	1.11723E5	2985.56358
0.59715	1.11594E5	2984.56358
0.59494	1.11465E5	2983.56358
0.59275	1.11337E5	2982.56358
0.59056	1.11209E5	2981.56358
0.58839	1.11081E5	2980.56358
0.58623	1.10955E5	2979.56358
0.58408	1.10828E5	2978.56358
0.58193	1.10702E5	2977.56358
0.57980	1.10576E5	2976.56358
0.57768	1.10451E5	2975.56358
0.57557	1.10326E5	2974.56358
0.57347	1.10202E5	2973.56358
0.57138	1.10078E5	2972.56358
0.56930	1.09955E5	2971.56358
0.56722	1.09832E5	2970.56358
0.56516	1.09709E5	2969.56358
0.56311	1.09587E5	2968.56358
0.56107	1.09465E5	2967.56358
0.55904	1.09344E5	2966.56358
0.55701	1.09223E5	2965.56358
0.55500	1.09102E5	2964.56358
0.55300	1.08982E5	2963.56358
0.55100	1.08862E5	2962.56358
0.54902	1.08743E5	2961.56358
0.54704	1.08624E5	2960.56358
0.54508	1.08505E5	2959.56358
0.54312	1.08387E5	2958.56358
0.54117	1.08269E5	2957.56358
0.53923	1.08152E5	2956.56358
0.53730	1.08035E5	2955.56358
0.53538	1.07918E5	2954.56358
0.53347	1.07802E5	2953.56358
0.53157	1.07686E5	2952.56358
0.52968	1.07570E5	2951.56358
0.52779	1.07455E5	2950.56358
0.52591	1.07340E5	2949.56358
0.52405	1.07226E5	2948.56358
0.52219	1.07112E5	2947.56358
0.52034	1.06998E5	2946.56358
0.51849	1.06885E5	2945.56358
0.51666	1.06772E5	2944.56358
0.51483	1.06659E5	2943.56358
0.51302	1.06547E5	2942.56358
0.51121	1.06435E5	2941.56358
0.50941	1.06324E5	2940.56358
0.50762	1.06213E5	2939.56358
0.50583	1.06102E5	2938.56358
0.50406	1.05991E5	2937.56358
0.50229	1.05881E5	2936.56358
0.50053	1.05771E5	2935.56358
0.49878	1.05662E5	2934.56358
0.49703	1.05553E5	2933.56358
0.49530	1.05444E5	2932.56358
0.49357	1.05335E5	2931.56358
0.49185	1.05227E5	2930.56358
0.49014	1.05119E5	2929.56358
0.48843	1.05012E5	2928.56358
0.48673	1.04905E5	2927.56358
0.48504	1.04798E5	2926.56358
0.48336	1.04691E5	2925.56358
0.48169	1.04585E5	2924.56358
0.48002	1.04479E5	2923.56358
0.47836	1.04373E5	2922.56358
0.47671	1.04268E5	2921.56358
0.47506	1.04163E5	2920.56358
0.47343	1.04058E5	2919.56358
0.47180	1.03954E5	2918.56358
0.47017	1.03850E5	2917.56358
0.46856	1.03746E5	2916.56358
0.46695	1.03643E5	2915.56358
0.46534	1.03540E5	2914.56358
0.46375	1.03437E5	2913.56358
0.46216	1.03334E5	2912.56358
0.46058	1.03232E5	2911.56358
0.45901	1.03130E5	2910.56358
0.45744	1.03028E5	2909.56358
0.45588	1.02927E5	2908.56358
0.45433	1.02826E5	2907.56358
0.45278	1.02725E5	2906.56358
0.45124	1.02624E5	2905.56358
0.44971	1.02524E5	2904.56358
0.44818	1.02424E5	2903.56358
0.44666	1.02324E5	2902.56358
0.44515	1.02225E5	2901.56358
0.44364	1.02126E5	2900.56358
0.44214	1.02027E5	2899.56358
0.44065	1.01928E5	2898.56358
0.43916	1.01830E5	2897.56358
0.43768	1.01732E5	2896.56358
0.43620	1.01634E5	2895.56358
0.43473	1.01536E5	2894.56358
0.43327	1.01439E5	2893.56358
0.43182	1.01342E5	2892.56358
0.43037	1.01245E5	2891.56358
0.42892	1.01149E5	2890.56358
0.42748	1.01053E5	2889.56358
0.42605	1.00957E5	2888.56358
0.42463	1.00861E5	2887.56358
0.42321	1.00765E5	2886.56358
0.42180	1.00670E5	2885.56358
0.42039	1.00575E5	2884.56358
0.41899	1.00480E5	2883.56358
0.41759	1.00386E5	2882.56358
0.41620	1.00292E5	2881.56358
0.41482	1.00198E5	2880.56358
0.41344	1.00104E5	2879.56358
0.41207	1.00010E5	2878.56358
0.41070	99917.12151	2877.56358
0.40934	99824.08963	2876.56358
0.40799	99731.29539	2875.56358
0.40664	99638.73744	2874.56358
0.40529	99546.41445	2873.56358
0.40396	99454.32507	2872.56358
0.40262	99362.46799	2871.56358
0.40130	99270.84189	2870.56358
0.39997	99179.44547	2869.56358
0.39866	99088.27743	2868.56358
0.39735	98997.33648	2867.56358
0.39604	98906.62135	2866.56358
0.39474	98816.13076	2865.56358
0.39345	98725.86346	2864.56358
0.39216	98635.81820	2863.56358
0.39088	98545.99372	2862.56358
0.38960	98456.38881	2861.56358
0.38832	98367.00222	2860.56358
0.38705	98277.83274	2859.56358
0.38579	98188.87916	2858.56358
0.38453	98100.14029	2857.56358
0.38328	98011.61491	2856.56358
0.38203	97923.30186	2855.56358
0.38079	97835.19996	2854.56358
0.37955	97747.30802	2853.56358
0.37832	97659.62490	2852.56358
0.37709	97572.14943	2851.56358
0.37587	97484.88048	2850.56358
0.37465	97397.81690	2849.56358
0.37344	97310.95756	2848.56358
0.37223	97224.30134	2847.56358
0.37103	97137.84713	2846.56358
0.36983	97051.59381	2845.56358
0.36864	96965.54029	2844.56358
0.36745	96879.68547	2843.56358
0.36627	96794.02826	2842.56358
0.36509	96708.56759	2841.56358
0.36391	96623.30239	2840.56358
0.36274	96538.23159	2839.56358
0.36158	96453.35413	2838.56358
0.36042	96368.66896	2837.56358
0.35926	96284.17504	2836.56358
0.35811	96199.87134	2835.56358
0.35696	96115.75682	2834.56358
0.35582	96031.83045	2833.56358
0.35468	95948.09124	2832.56358
0.35355	95864.53815	2831.56358
0.35242	95781.17020	2830.56358
0.35129	95697.98638	2829.56358
0.35017	95614.98570	2828.56358
0.34906	95532.16719	2827.56358
0.34795	95449.52987	2826.56358
0.34684	95367.07275	2825.56358
0.34574	95284.79489	2824.56358
0.34464	95202.69532	2823.56358
0.34355	95120.77309	2822.56358
0.34246	95039.02726	2821.56358
0.34137	94957.45688	2820.56358
0.34029	94876.06102	2819.56358
0.33921	94794.83876	2818.56358
0.33814	94713.78918	2817.56358
0.33707	94632.91136	2816.56358
0.33601	94552.20438	2815.56358
0.33494	94471.66736	2814.56358
0.33389	94391.29938	2813.56358
0.33284	94311.09956	2812.56358
0.33179	94231.06701	2811.56358
0.33074	94151.20085	2810.56358
0.32970	94071.50021	2809.56358
0.32867	93991.96422	2808.56358
0.32763	93912.59202	2807.56358
0.32660	93833.38273	2806.56358
0.32558	93754.33553	2805.56358
0.32456	93675.44955	2804.56358
0.32354	93596.72395	2803.56358
0.32253	93518.15791	2802.56358
0.32152	93439.75058	2801.56358
0.32051	93361.50114	2800.56358
0.31951	93283.40878	2799.56358
0.31851	93205.47267	2798.56358
0.31752	93127.69201	2797.56358
0.31653	93050.06599	2796.56358
0.31554	92972.59382	2795.56358
0.31456	92895.27469	2794.56358
0.31358	92818.10782	2793.56358
0.31260	92741.09242	2792.56358
0.31163	92664.22771	2791.56358
0.31066	92587.51292	2790.56358
0.30970	92510.94728	2789.56358
0.30874	92434.53002	2788.56358
0.30778	92358.26038	2787.56358
0.30683	92282.13761	2786.56358
0.30588	92206.16096	2785.56358
0.30493	92130.32967	2784.56358
0.30399	92054.64301	2783.56358
0.30305	91979.10024	2782.56358
0.30211	91903.70063	2781.56358
0.30118	91828.44345	2780.56358
0.30025	91753.32798	2779.56358
0.29932	91678.35349	2778.56358
0.29840	91603.51928	2777.56358
0.29748	91528.82463	2776.56358
0.29656	91454.26883	2775.56358
0.29565	91379.85120	2774.56358
0.29474	91305.57102	2773.56358
0.29383	91231.42761	2772.56358
0.29293	91157.42028	2771.56358
0.29203	91083.54835	2770.56358
0.29113	91009.81113	2769.56358
0.29024	90936.20794	2768.56358
0.28935	90862.73813	2767.56358
0.28846	90789.40101	2766.56358
0.28758	90716.19593	2765.56358
0.28670	90643.12223	2764.56358
0.28582	90570.17925	2763.56358
0.28495	90497.36634	2762.56358
0.28408	90424.68285	2761.56358
0.28321	90352.12814	2760.56358
0.28235	90279.70157	2759.56358
0.28148	90207.40251	2758.56358
0.28063	90135.23032	2757.56358
0.27977	90063.18437	2756.56358
0.27892	89991.26404	2755.56358
0.27807	89919.46871	2754.56358
0.27722	89847.79777	2753.56358
0.27638	89776.25059	2752.56358
0.27554	89704.82658	2751.56358
0.27470	89633.52512	2750.56358
0.27387	89562.34562	2749.56358
0.27304	89491.28747	2748.56358
0.27221	89420.35008	2747.56358
0.27138	89349.53286	2746.56358
0.27056	89278.83522	2745.56358
0.26974	89208.25658	2744.56358
0.26892	89137.79636	2743.56358
0.26811	89067.45397	2742.56358
0.26730	88997.22885	2741.56358
0.26649	88927.12043	2740.56358
0.26568	88857.12814	2739.56358
0.26488	88787.25141	2738.56358
0.26408	88717.48968	2737.56358
0.26328	88647.84241	2736.56358
0.26249	88578.30903	2735.56358
0.26170	88508.88899	2734.56358
0.26091	88439.58175	2733.56358
0.26012	88370.38676	2732.56358
0.25934	88301.30348	2731.56358
0.25856	88232.33138	2730.56358
0.25778	88163.46992	2729.56358
0.25700	88094.71857	2728.56358
0.25623	88026.07680	2727.56358
0.25546	87957.54409	2726.56358
0.25469	87889.11991	2725.56358
0.25393	87820.80375	2724.56358
0.25317	87752.59509	2723.56358
0.25241	87684.49341	2722.56358
0.25165	87616.49822	2721.56358
0.25089	87548.60899	2720.56358
0.25014	87480.82523	2719.56358
0.24939	87413.14644	2718.56358
0.24865	87345.57211	2717.56358
0.24790	87278.10176	2716.56358
0.24716	87210.73489	2715.56358
0.24642	87143.47100	2714.56358
0.24568	87076.30963	2713.56358
0.24495	87009.25027	2712.56358
0.24422	86942.29245	2711.56358
0.24349	86875.43570	2710.56358
0.24276	86808.67953	2709.56358
0.24204	86742.02347	2708.56358
0.24131	86675.46706	2707.56358
0.24059	86609.00982	2706.56358
0.23988	86542.65129	2705.56358
0.23916	86476.39102	2704.56358
0.23845	86410.22853	2703.56358
0.23774	86344.16337	2702.56358
0.23703	86278.19510	2701.56358
0.23633	86212.32325	2700.56358
0.23562	86146.54738	2699.56358
0.23492	86080.86705	2698.56358
0.23422	86015.28180	2697.56358
0.23353	85949.79120	2696.56358
0.23283	85884.39480	2695.56358
0.23214	85819.09218	2694.56358
0.23145	85753.88290	2693.56358
0.23076	85688.76652	2692.56358
0.23008	85623.74262	2691.56358
0.22940	85558.81078	2690.56358
0.22872	85493.97056	2689.56358
0.22804	85429.22154	2688.56358
0.22736	85364.56331	2687.56358
0.22669	85299.99545	2686.56358
0.22601	85235.51754	2685.56358
0.22535	85171.12917	2684.56358
0.22468	85106.82994	2683.56358
0.22401	85042.61942	2682.56358
0.22335	84978.49723	2681.56358
0.22269	84914.46295	2680.56358
0.22203	84850.51619	2679.56358
0.22137	84786.65654	2678.56358
0.22072	84722.88360	2677.56358
0.22007	84659.19700	2676.56358
0.21941	84595.59632	2675.56358
0.21877	84532.08119	2674.56358
0.21812	84468.65121	2673.56358
0.21748	84405.30600	2672.56358
0.21683	84342.04517	2671.56358
0.21619	84278.86835	2670.56358
0.21555	84215.77515	2669.56358
0.21492	84152.76520	2668.56358
0.21428	84089.83812	2667.56358
0.21365	84026.99354	2666.56358
0.21302	83964.23108	2665.56358
0.21239	83901.55039	2664.56358
0.21177	83838.95109	2663.56358
0.21114	83776.43281	2662.56358
0.21052	83713.99520	2661.56358
0.20990	83651.63788	2660.56358
0.20928	83589.36052	2659.56358
0.20867	83527.16274	2658.56358
0.20805	83465.04419	2657.56358
0.20744	83403.00451	2656.56358
0.20683	83341.04337	2655.56358
0.20622	83279.16040	2654.56358
0.20561	83217.35526	2653.56358
0.20501	83155.62760	2652.56358
0.20440	83093.97709	2651.56358
0.20380	83032.40337	2650.56358
0.20320	82970.90612	2649.56358
0.20260	82909.48498	2648.56358
0.20201	82848.13962	2647.56358
0.20141	82786.86972	2646.56358
0.20082	82725.67493	2645.56358
0.20023	82664.55492	2644.56358
0.19964	82603.50938	2643.56358
0.19906	82542.53796	2642.56358
0.19847	82481.64034	2641.56358
0.19789	82420.81620	2640.56358
0.19730	82360.06522	2639.56358
0.19673	82299.38707	2638.56358
0.19615	82238.78144	2637.56358
0.19557	82178.24801	2636.56358
0.19500	82117.78647	2635.56358
0.19442	82057.39649	2634.56358
0.19385	81997.07777	2633.56358
0.19328	81936.83000	2632.56358
0.19271	81876.65287	2631.56358
0.19215	81816.54607	2630.56358
0.19158	81756.50930	2629.56358
0.19102	81696.54224	2628.56358
0.19046	81636.64461	2627.56358
0.18990	81576.81610	2626.56358
0.18934	81517.05640	2625.56358
0.18879	81457.36523	2624.56358
0.18823	81397.74228	2623.56358
0.18768	81338.18727	2622.56358
0.18713	81278.69989	2621.56358
0.18658	81219.27985	2620.56358
0.18603	81159.92688	2619.56358
0.18549	81100.64067	2618.56358
0.18494	81041.42094	2617.56358
0.18440	80982.26741	2616.56358
0.18386	80923.17979	2615.56358
0.18332	80864.15779	2614.56358
0.18278	80805.20115	2613.56358
0.18224	80746.30957	2612.56358
0.18171	80687.48278	2611.56358
0.18117	80628.72051	2610.56358
0.18064	80570.02247	2609.56358
0.18011	80511.38839	2608.56358
0.17958	80452.81801	2607.56358
0.17905	80394.31105	2606.56358
0.17853	80335.86723	2605.56358
0.17800	80277.48630	2604.56358
0.17748	80219.16798	2603.56358
0.17696	80160.91201	2602.56358
0.17644	80102.71812	2601.56358
0.17592	80044.58606	2600.56358
0.17540	79986.51556	2599.56358
0.17489	79928.50635	2598.56358
0.17437	79870.55819	2597.56358
0.17386	79812.67080	2596.56358
0.17335	79754.84395	2595.56358
0.17284	79697.07737	2594.56358
0.17233	79639.37080	2593.56358
0.17182	79581.72400	2592.56358
0.17132	79524.13671	2591.56358
0.17081	79466.60868	2590.56358
0.17031	79409.13967	2589.56358
0.16981	79351.72943	2588.56358
0.16931	79294.37771	2587.56358
0.16881	79237.08426	2586.56358
0.16831	79179.84884	2585.56358
0.16782	79122.67122	2584.56358
0.16732	79065.55114	2583.56358
0.16683	79008.48837	2582.56358
0.16634	78951.48266	2581.56358
0.16585	78894.53379	2580.56358
0.16536	78837.64151	2579.56358
0.16487	78780.80559	2578.56358
0.16438	78724.02580	2577.56358
0.16390	78667.30189	2576.56358
0.16341	78610.63364	2575.56358
0.16293	78554.02082	2574.56358
0.16245	78497.46320	2573.56358
0.16197	78440.96055	2572.56358
0.16149	78384.51263	2571.56358
0.16101	78328.11923	2570.56358
0.16054	78271.78012	2569.56358
0.16006	78215.49508	2568.56358
0.15959	78159.26388	2567.56358
0.15912	78103.08629	2566.56358
0.15865	78046.96211	2565.56358
0.15818	77990.89110	2564.56358
0.15771	77934.87306	2563.56358
0.15724	77878.90775	2562.56358
0.15678	77822.99497	2561.56358
0.15631	77767.13450	2560.56358
0.15585	77711.32612	2559.56358
0.15539	77655.56962	2558.56358
0.15492	77599.86479	2557.56358
0.15446	77544.21141	2556.56358
0.15401	77488.60928	2555.56358
0.15355	77433.05818	2554.56358
0.15309	77377.55791	2553.56358
0.15264	77322.10826	2552.56358
0.15218	77266.70902	2551.56358
0.15173	77211.35998	2550.56358
0.15128	77156.06095	2549.56358
0.15083	77100.81171	2548.56358
0.15038	77045.61207	2547.56358
0.14993	76990.46181	2546.56358
0.14949	76935.36075	2545.56358
0.14904	76880.30868	2544.56358
0.14860	76825.30540	2543.56358
0.14815	76770.35071	2542.56358
0.14771	76715.44441	2541.56358
0.14727	76660.58632	2540.56358
0.14683	76605.77623	2539.56358
0.14639	76551.01394	2538.56358
0.14595	76496.29927	2537.56358
0.14551	76441.63202	2536.56358
0.14508	76387.01200	2535.56358
0.14464	76332.43902	2534.56358
0.14421	76277.91289	2533.56358
0.14378	76223.43341	2532.56358
0.14335	76169.00041	2531.56358
0.14292	76114.61368	2530.56358
0.14249	76060.27305	2529.56358
0.14206	76005.97833	2528.56358
0.14163	75951.72933	2527.56358
0.14121	75897.52587	2526.56358
0.14078	75843.36777	2525.56358
0.14036	75789.25484	2524.56358
0.13994	75735.18690	2523.56358
0.13951	75681.16376	2522.56358
0.13909	75627.18526	2521.56358
0.13867	75573.25120	2520.56358
0.13825	75519.36141	2519.56358
0.13784	75465.51572	2518.56358
0.13742	75411.71394	2517.56358
0.13700	75357.95590	2516.56358
0.13659	75304.24141	2515.56358
0.13618	75250.57032	2514.56358
0.13576	75196.94244	2513.56358
0.13535	75143.35760	2512.56358
0.13494	75089.81562	2511.56358
0.13453	75036.31634	2510.56358
0.13412	74982.85958	2509.56358
0.13371	74929.44517	2508.56358
0.13331	74876.07294	2507.56358
0.13290	74822.74273	2506.56358
0.13250	74769.45436	2505.56358
0.13209	74716.20766	2504.56358
0.13169	74663.00248	2503.56358
0.13129	74609.83863	2502.56358
0.13089	74556.71597	2501.56358
0.13048	74503.63432	2500.56358
0.13009	74450.59351	2499.56358
0.12969	74397.59339	2498.56358
0.12929	74344.63378	2497.56358
0.12889	74291.71454	2496.56358
0.12850	74238.83549	2495.56358
0.12810	74185.99648	2494.56358
0.12771	74133.19734	2493.56358
0.12732	74080.43792	2492.56358
0.12692	74027.71805	2491.56358
0.12653	73975.03758	2490.56358
0.12614	73922.39635	2489.56358
0.12575	73869.79419	2488.56358
0.12536	73817.23097	2487.56358
0.12498	73764.70651	2486.56358
0.12459	73712.22067	2485.56358
0.12420	73659.77328	2484.56358
0.12382	73607.36420	2483.56358
0.12343	73554.99326	2482.56358
0.12305	73502.66032	2481.56358
0.12267	73450.36523	2480.56358
0.12228	73398.10783	2479.56358
0.12190	73345.88797	2478.56358
0.12152	73293.70549	2477.56358
0.12114	73241.56026	2476.56358
0.12076	73189.45212	2475.56358
0.12039	73137.38091	2474.56358
0.12001	73085.34650	2473.56358
0.11963	73033.34872	2472.56358
0.11926	72981.38745	2471.56358
0.11888	72929.46252	2470.56358
0.11851	72877.57379	2469.56358
0.11814	72825.72111	2468.56358
0.11776	72773.90435	2467.56358
0.11739	72722.12334	2466.56358
0.11702	72670.37796	2465.56358
0.11665	72618.66805	2464.56358
0.11628	72566.99347	2463.56358
0.11591	72515.35408	2462.56358
0.11555	72463.74973	2461.56358
0.11518	72412.18029	2460.56358
0.11481	72360.64560	2459.56358
0.11445	72309.14554	2458.56358
0.11408	72257.67995	2457.56358
0.11372	72206.24870	2456.56358
