Mole fraction of liquid	Heat per mole [J]	Temperature [K]
1.00000	1.33927E5	3159.97995
0.99997	1.33922E5	3159.88432
0.99541	1.33686E5	3158.88432
0.99087	1.33451E5	3157.88432
0.98636	1.33217E5	3156.88432
0.98188	1.32985E5	3155.88432
0.97743	1.32754E5	3154.88432
0.97301	1.32525E5	3153.88432
0.96861	1.32296E5	3152.88432
0.96424	1.32069E5	3151.88432
0.95990	1.31843E5	3150.88432
0.95559	1.31618E5	3149.88432
0.95130	1.31395E5	3148.88432
0.94704	1.31173E5	3147.88432
0.94280	1.30951E5	3146.88432
0.93860	1.30732E5	3145.88432
0.93441	1.30513E5	3144.88432
0.93026	1.30295E5	3143.88432
0.92612	1.30079E5	3142.88432
0.92202	1.29863E5	3141.88432
0.91794	1.29649E5	3140.88432
0.91388	1.29436E5	3139.88432
0.90985	1.29224E5	3138.88432
0.90584	1.29014E5	3137.88432
0.90186	1.28804E5	3136.88432
0.89790	1.28595E5	3135.88432
0.89397	1.28388E5	3134.88432
0.89006	1.28181E5	3133.88432
0.88617	1.27976E5	3132.88432
0.88231	1.27771E5	3131.88432
0.87847	1.27568E5	3130.88432
0.87465	1.27366E5	3129.88432
0.87086	1.27165E5	3128.88432
0.86709	1.26964E5	3127.88432
0.86334	1.26765E5	3126.88432
0.85961	1.26567E5	3125.88432
0.85590	1.26370E5	3124.88432
0.85222	1.26174E5	3123.88432
0.84856	1.25978E5	3122.88432
0.84492	1.25784E5	3121.88432
0.84130	1.25591E5	3120.88432
0.83771	1.25399E5	3119.88432
0.83413	1.25207E5	3118.88432
0.83058	1.25017E5	3117.88432
0.82704	1.24827E5	3116.88432
0.82353	1.24639E5	3115.88432
0.82004	1.24451E5	3114.88432
0.81657	1.24264E5	3113.88432
0.81312	1.24079E5	3112.88432
0.80968	1.23894E5	3111.88432
0.80627	1.23710E5	3110.88432
0.80288	1.23526E5	3109.88432
0.79951	1.23344E5	3108.88432
0.79615	1.23163E5	3107.88432
0.79282	1.22982E5	3106.88432
0.78951	1.22803E5	3105.88432
0.78621	1.22624E5	3104.88432
0.78293	1.22446E5	3103.88432
0.77968	1.22269E5	3102.88432
0.77644	1.22092E5	3101.88432
0.77322	1.21917E5	3100.88432
0.77001	1.21742E5	3099.88432
0.76683	1.21569E5	3098.88432
0.76366	1.21395E5	3097.88432
0.76052	1.21223E5	3096.88432
0.75739	1.21052E5	3095.88432
0.75427	1.20881E5	3094.88432
0.75118	1.20711E5	3093.88432
0.74810	1.20542E5	3092.88432
0.74504	1.20374E5	3091.88432
0.74199	1.20206E5	3090.88432
0.73897	1.20040E5	3089.88432
0.73596	1.19874E5	3088.88432
0.73297	1.19708E5	3087.88432
0.72999	1.19544E5	3086.88432
0.72703	1.19380E5	3085.88432
0.72409	1.19217E5	3084.88432
0.72116	1.19055E5	3083.88432
0.71825	1.18893E5	3082.88432
0.71535	1.18732E5	3081.88432
0.71248	1.18572E5	3080.88432
0.70961	1.18412E5	3079.88432
0.70677	1.18254E5	3078.88432
0.70393	1.18096E5	3077.88432
0.70112	1.17938E5	3076.88432
0.69832	1.17782E5	3075.88432
0.69553	1.17626E5	3074.88432
0.69276	1.17470E5	3073.88432
0.69001	1.17315E5	3072.88432
0.68727	1.17161E5	3071.88432
0.68454	1.17008E5	3070.88432
0.68183	1.16855E5	3069.88432
0.67913	1.16703E5	3068.88432
0.67645	1.16552E5	3067.88432
0.67379	1.16401E5	3066.88432
0.67113	1.16251E5	3065.88432
0.66849	1.16102E5	3064.88432
0.66587	1.15953E5	3063.88432
0.66326	1.15805E5	3062.88432
0.66066	1.15657E5	3061.88432
0.65808	1.15510E5	3060.88432
0.65551	1.15364E5	3059.88432
0.65296	1.15218E5	3058.88432
0.65042	1.15073E5	3057.88432
0.64789	1.14928E5	3056.88432
0.64537	1.14784E5	3055.88432
0.64287	1.14641E5	3054.88432
0.64038	1.14498E5	3053.88432
0.63791	1.14355E5	3052.88432
0.63545	1.14214E5	3051.88432
0.63300	1.14073E5	3050.88432
0.63056	1.13932E5	3049.88432
0.62814	1.13792E5	3048.88432
0.62573	1.13653E5	3047.88432
0.62333	1.13514E5	3046.88432
0.62094	1.13376E5	3045.88432
0.61857	1.13238E5	3044.88432
0.61621	1.13101E5	3043.88432
0.61386	1.12964E5	3042.88432
0.61152	1.12828E5	3041.88432
0.60920	1.12692E5	3040.88432
0.60688	1.12557E5	3039.88432
0.60458	1.12423E5	3038.88432
0.60229	1.12289E5	3037.88432
0.60001	1.12155E5	3036.88432
0.59775	1.12022E5	3035.88432
0.59549	1.11890E5	3034.88432
0.59325	1.11758E5	3033.88432
0.59102	1.11626E5	3032.88432
0.58880	1.11496E5	3031.88432
0.58659	1.11365E5	3030.88432
0.58440	1.11235E5	3029.88432
0.58221	1.11106E5	3028.88432
0.58003	1.10977E5	3027.88432
0.57787	1.10848E5	3026.88432
0.57572	1.10720E5	3025.88432
0.57357	1.10593E5	3024.88432
0.57144	1.10466E5	3023.88432
0.56932	1.10339E5	3022.88432
0.56721	1.10213E5	3021.88432
0.56511	1.10087E5	3020.88432
0.56302	1.09962E5	3019.88432
0.56094	1.09837E5	3018.88432
0.55887	1.09713E5	3017.88432
0.55682	1.09589E5	3016.88432
0.55477	1.09466E5	3015.88432
0.55273	1.09343E5	3014.88432
0.55070	1.09220E5	3013.88432
0.54868	1.09098E5	3012.88432
0.54668	1.08977E5	3011.88432
0.54468	1.08856E5	3010.88432
0.54269	1.08735E5	3009.88432
0.54071	1.08615E5	3008.88432
0.53874	1.08495E5	3007.88432
0.53678	1.08375E5	3006.88432
0.53484	1.08256E5	3005.88432
0.53290	1.08138E5	3004.88432
0.53097	1.08019E5	3003.88432
0.52904	1.07902E5	3002.88432
0.52713	1.07784E5	3001.88432
0.52523	1.07667E5	3000.88432
0.52334	1.07551E5	2999.88432
0.52145	1.07435E5	2998.88432
0.51958	1.07319E5	2997.88432
0.51771	1.07203E5	2996.88432
0.51586	1.07088E5	2995.88432
0.51401	1.06974E5	2994.88432
0.51217	1.06860E5	2993.88432
0.51034	1.06746E5	2992.88432
0.50852	1.06632E5	2991.88432
0.50670	1.06519E5	2990.88432
0.50490	1.06407E5	2989.88432
0.50310	1.06294E5	2988.88432
0.50132	1.06183E5	2987.88432
0.49954	1.06071E5	2986.88432
0.49777	1.05960E5	2985.88432
0.49601	1.05849E5	2984.88432
0.49425	1.05739E5	2983.88432
0.49251	1.05629E5	2982.88432
0.49077	1.05519E5	2981.88432
0.48904	1.05409E5	2980.88432
0.48732	1.05300E5	2979.88432
0.48561	1.05192E5	2978.88432
0.48391	1.05083E5	2977.88432
0.48221	1.04976E5	2976.88432
0.48052	1.04868E5	2975.88432
0.47884	1.04761E5	2974.88432
0.47717	1.04654E5	2973.88432
0.47550	1.04547E5	2972.88432
0.47385	1.04441E5	2971.88432
0.47220	1.04335E5	2970.88432
0.47056	1.04230E5	2969.88432
0.46892	1.04124E5	2968.88432
0.46729	1.04019E5	2967.88432
0.46568	1.03915E5	2966.88432
0.46406	1.03811E5	2965.88432
0.46246	1.03707E5	2964.88432
0.46086	1.03603E5	2963.88432
0.45927	1.03500E5	2962.88432
0.45769	1.03397E5	2961.88432
0.45612	1.03294E5	2960.88432
0.45455	1.03192E5	2959.88432
0.45299	1.03090E5	2958.88432
0.45143	1.02988E5	2957.88432
0.44989	1.02887E5	2956.88432
0.44835	1.02786E5	2955.88432
0.44681	1.02685E5	2954.88432
0.44529	1.02584E5	2953.88432
0.44377	1.02484E5	2952.88432
0.44226	1.02384E5	2951.88432
0.44075	1.02285E5	2950.88432
0.43926	1.02185E5	2949.88432
0.43776	1.02086E5	2948.88432
0.43628	1.01988E5	2947.88432
0.43480	1.01889E5	2946.88432
0.43333	1.01791E5	2945.88432
0.43186	1.01693E5	2944.88432
0.43041	1.01596E5	2943.88432
0.42895	1.01498E5	2942.88432
0.42751	1.01401E5	2941.88432
0.42607	1.01305E5	2940.88432
0.42464	1.01208E5	2939.88432
0.42321	1.01112E5	2938.88432
0.42179	1.01016E5	2937.88432
0.42038	1.00920E5	2936.88432
0.41897	1.00825E5	2935.88432
0.41757	1.00730E5	2934.88432
0.41617	1.00635E5	2933.88432
0.41479	1.00541E5	2932.88432
0.41340	1.00446E5	2931.88432
0.41203	1.00352E5	2930.88432
0.41066	1.00259E5	2929.88432
0.40929	1.00165E5	2928.88432
0.40793	1.00072E5	2927.88432
0.40658	99978.86821	2926.88432
0.40523	99886.14358	2925.88432
0.40389	99793.67311	2924.88432
0.40256	99701.45533	2923.88432
0.40123	99609.48875	2922.88432
0.39990	99517.77189	2921.88432
0.39859	99426.30332	2920.88432
0.39727	99335.08156	2919.88432
0.39597	99244.10520	2918.88432
0.39467	99153.37280	2917.88432
0.39337	99062.88295	2916.88432
0.39208	98972.63424	2915.88432
0.39080	98882.62528	2914.88432
0.38952	98792.85467	2913.88432
0.38824	98703.32104	2912.88432
0.38698	98614.02303	2911.88432
0.38571	98524.95927	2910.88432
0.38446	98436.12843	2909.88432
0.38321	98347.52916	2908.88432
0.38196	98259.16013	2907.88432
0.38072	98171.02003	2906.88432
0.37948	98083.10755	2905.88432
0.37825	97995.42138	2904.88432
0.37703	97907.96024	2903.88432
0.37581	97820.72283	2902.88432
0.37459	97733.70790	2901.88432
0.37338	97646.91417	2900.88432
0.37218	97560.34039	2899.88432
0.37098	97473.98531	2898.88432
0.36978	97387.84770	2897.88432
0.36859	97301.92632	2896.88432
0.36741	97216.21996	2895.88432
0.36623	97130.72740	2894.88432
0.36505	97045.44744	2893.88432
0.36388	96960.37888	2892.88432
0.36272	96875.52054	2891.88432
0.36156	96790.87124	2890.88432
0.36040	96706.42980	2889.88432
0.35925	96622.19507	2888.88432
0.35810	96538.16588	2887.88432
0.35696	96454.34110	2886.88432
0.35583	96370.71958	2885.88432
0.35469	96287.30020	2884.88432
0.35357	96204.08182	2883.88432
0.35244	96121.06334	2882.88432
0.35133	96038.24364	2881.88432
0.35021	95955.62163	2880.88432
0.34910	95873.19621	2879.88432
0.34800	95790.96630	2878.88432
0.34690	95708.93082	2877.88432
0.34580	95627.08870	2876.88432
0.34471	95545.43888	2875.88432
0.34363	95463.98030	2874.88432
0.34255	95382.71190	2873.88432
0.34147	95301.63266	2872.88432
0.34039	95220.74153	2871.88432
0.33933	95140.03749	2870.88432
0.33826	95059.51952	2869.88432
0.33720	94979.18659	2868.88432
0.33614	94899.03772	2867.88432
0.33509	94819.07188	2866.88432
0.33404	94739.28810	2865.88432
0.33300	94659.68539	2864.88432
0.33196	94580.26275	2863.88432
0.33093	94501.01923	2862.88432
0.32990	94421.95385	2861.88432
0.32887	94343.06566	2860.88432
0.32785	94264.35369	2859.88432
0.32683	94185.81700	2858.88432
0.32581	94107.45465	2857.88432
0.32480	94029.26571	2856.88432
0.32380	93951.24924	2855.88432
0.32279	93873.40432	2854.88432
0.32179	93795.73003	2853.88432
0.32080	93718.22547	2852.88432
0.31981	93640.88972	2851.88432
0.31882	93563.72190	2850.88432
0.31784	93486.72110	2849.88432
0.31686	93409.88645	2848.88432
0.31588	93333.21705	2847.88432
0.31491	93256.71204	2846.88432
0.31395	93180.37054	2845.88432
0.31298	93104.19168	2844.88432
0.31202	93028.17463	2843.88432
0.31106	92952.31851	2842.88432
0.31011	92876.62248	2841.88432
0.30916	92801.08570	2840.88432
0.30822	92725.70734	2839.88432
0.30728	92650.48656	2838.88432
0.30634	92575.42254	2837.88432
0.30540	92500.51446	2836.88432
0.30447	92425.76150	2835.88432
0.30355	92351.16286	2834.88432
0.30262	92276.71773	2833.88432
0.30170	92202.42531	2832.88432
0.30079	92128.28482	2831.88432
0.29987	92054.29545	2830.88432
0.29896	91980.45642	2829.88432
0.29806	91906.76697	2828.88432
0.29715	91833.22631	2827.88432
0.29625	91759.83368	2826.88432
0.29536	91686.58832	2825.88432
0.29447	91613.48945	2824.88432
0.29358	91540.53634	2823.88432
0.29269	91467.72823	2822.88432
0.29181	91395.06438	2821.88432
0.29093	91322.54405	2820.88432
0.29006	91250.16650	2819.88432
0.28918	91177.93101	2818.88432
0.28831	91105.83685	2817.88432
0.28745	91033.88329	2816.88432
0.28659	90962.06963	2815.88432
0.28573	90890.39515	2814.88432
0.28487	90818.85914	2813.88432
0.28402	90747.46090	2812.88432
0.28317	90676.19974	2811.88432
0.28232	90605.07495	2810.88432
0.28148	90534.08586	2809.88432
0.28064	90463.23177	2808.88432
0.27980	90392.51201	2807.88432
0.27897	90321.92589	2806.88432
0.27814	90251.47275	2805.88432
0.27731	90181.15191	2804.88432
0.27648	90110.96272	2803.88432
0.27566	90040.90452	2802.88432
0.27484	89970.97664	2801.88432
0.27403	89901.17845	2800.88432
0.27322	89831.50928	2799.88432
0.27241	89761.96850	2798.88432
0.27160	89692.55546	2797.88432
0.27080	89623.26954	2796.88432
0.27000	89554.11010	2795.88432
0.26920	89485.07651	2794.88432
0.26840	89416.16816	2793.88432
0.26761	89347.38441	2792.88432
0.26682	89278.72466	2791.88432
0.26604	89210.18829	2790.88432
0.26525	89141.77470	2789.88432
0.26447	89073.48327	2788.88432
0.26369	89005.31341	2787.88432
0.26292	88937.26453	2786.88432
0.26215	88869.33602	2785.88432
0.26138	88801.52730	2784.88432
0.26061	88733.83779	2783.88432
0.25985	88666.26689	2782.88432
0.25909	88598.81404	2781.88432
0.25833	88531.47865	2780.88432
0.25757	88464.26015	2779.88432
0.25682	88397.15798	2778.88432
0.25607	88330.17157	2777.88432
0.25532	88263.30035	2776.88432
0.25458	88196.54378	2775.88432
0.25384	88129.90129	2774.88432
0.25310	88063.37234	2773.88432
0.25236	87996.95637	2772.88432
0.25163	87930.65284	2771.88432
0.25089	87864.46121	2770.88432
0.25016	87798.38095	2769.88432
0.24944	87732.41151	2768.88432
0.24871	87666.55237	2767.88432
0.24799	87600.80299	2766.88432
0.24727	87535.16285	2765.88432
0.24656	87469.63143	2764.88432
0.24584	87404.20822	2763.88432
0.24513	87338.89268	2762.88432
0.24442	87273.68432	2761.88432
0.24372	87208.58262	2760.88432
0.24301	87143.58708	2759.88432
0.24231	87078.69718	2758.88432
0.24161	87013.91244	2757.88432
0.24092	86949.23235	2756.88432
0.24022	86884.65642	2755.88432
0.23953	86820.18415	2754.88432
0.23884	86755.81507	2753.88432
0.23816	86691.54867	2752.88432
0.23747	86627.38449	2751.88432
0.23679	86563.32203	2750.88432
0.23611	86499.36082	2749.88432
0.23543	86435.50039	2748.88432
0.23476	86371.74027	2747.88432
0.23408	86308.07998	2746.88432
0.23341	86244.51906	2745.88432
0.23275	86181.05705	2744.88432
0.23208	86117.69348	2743.88432
0.23142	86054.42790	2742.88432
0.23075	85991.25986	2741.88432
0.23010	85928.18889	2740.88432
0.22944	85865.21456	2739.88432
0.22878	85802.33640	2738.88432
0.22813	85739.55399	2737.88432
0.22748	85676.86687	2736.88432
0.22683	85614.27461	2735.88432
0.22619	85551.77677	2734.88432
0.22554	85489.37291	2733.88432
0.22490	85427.06260	2732.88432
0.22426	85364.84542	2731.88432
0.22363	85302.72094	2730.88432
0.22299	85240.68873	2729.88432
0.22236	85178.74837	2728.88432
0.22173	85116.89944	2727.88432
0.22110	85055.14152	2726.88432
0.22047	84993.47421	2725.88432
0.21985	84931.89708	2724.88432
0.21923	84870.40973	2723.88432
0.21861	84809.01175	2722.88432
0.21799	84747.70273	2721.88432
0.21737	84686.48227	2720.88432
0.21676	84625.34998	2719.88432
0.21615	84564.30545	2718.88432
0.21554	84503.34828	2717.88432
0.21493	84442.47809	2716.88432
0.21432	84381.69448	2715.88432
0.21372	84320.99707	2714.88432
0.21312	84260.38546	2713.88432
0.21252	84199.85927	2712.88432
0.21192	84139.41812	2711.88432
0.21132	84079.06162	2710.88432
0.21073	84018.78941	2709.88432
0.21014	83958.60110	2708.88432
0.20955	83898.49632	2707.88432
0.20896	83838.47470	2706.88432
0.20837	83778.53587	2705.88432
0.20779	83718.67946	2704.88432
0.20720	83658.90510	2703.88432
0.20662	83599.21244	2702.88432
0.20604	83539.60110	2701.88432
0.20547	83480.07074	2700.88432
0.20489	83420.62099	2699.88432
0.20432	83361.25150	2698.88432
0.20375	83301.96192	2697.88432
0.20318	83242.75188	2696.88432
0.20261	83183.62106	2695.88432
0.20204	83124.56909	2694.88432
0.20148	83065.59563	2693.88432
0.20092	83006.70034	2692.88432
0.20036	82947.88288	2691.88432
0.19980	82889.14290	2690.88432
0.19924	82830.48008	2689.88432
0.19869	82771.89406	2688.88432
0.19813	82713.38453	2687.88432
0.19758	82654.95114	2686.88432
0.19703	82596.59357	2685.88432
0.19648	82538.31149	2684.88432
0.19594	82480.10457	2683.88432
0.19539	82421.97249	2682.88432
0.19485	82363.91492	2681.88432
0.19431	82305.93154	2680.88432
0.19377	82248.02204	2679.88432
0.19323	82190.18609	2678.88432
0.19270	82132.42338	2677.88432
0.19216	82074.73360	2676.88432
0.19163	82017.11643	2675.88432
0.19110	81959.57156	2674.88432
0.19057	81902.09868	2673.88432
0.19004	81844.69749	2672.88432
0.18951	81787.36768	2671.88432
0.18899	81730.10895	2670.88432
0.18847	81672.92099	2669.88432
0.18794	81615.80350	2668.88432
0.18742	81558.75619	2667.88432
0.18691	81501.77876	2666.88432
0.18639	81444.87090	2665.88432
0.18588	81388.03233	2664.88432
0.18536	81331.26276	2663.88432
0.18485	81274.56189	2662.88432
0.18434	81217.92943	2661.88432
0.18383	81161.36510	2660.88432
0.18332	81104.86862	2659.88432
0.18282	81048.43968	2658.88432
0.18232	80992.07802	2657.88432
0.18181	80935.78335	2656.88432
0.18131	80879.55539	2655.88432
0.18081	80823.39386	2654.88432
0.18031	80767.29849	2653.88432
0.17982	80711.26900	2652.88432
0.17932	80655.30511	2651.88432
0.17883	80599.40656	2650.88432
0.17834	80543.57307	2649.88432
0.17785	80487.80437	2648.88432
0.17736	80432.10020	2647.88432
0.17687	80376.46028	2646.88432
0.17639	80320.88435	2645.88432
0.17590	80265.37216	2644.88432
0.17542	80209.92343	2643.88432
0.17494	80154.53790	2642.88432
0.17446	80099.21532	2641.88432
0.17398	80043.95543	2640.88432
0.17350	79988.75796	2639.88432
0.17302	79933.62267	2638.88432
0.17255	79878.54931	2637.88432
0.17208	79823.53760	2636.88432
0.17161	79768.58732	2635.88432
0.17113	79713.69820	2634.88432
0.17067	79658.87000	2633.88432
0.17020	79604.10246	2632.88432
0.16973	79549.39535	2631.88432
0.16927	79494.74842	2630.88432
0.16880	79440.16143	2629.88432
0.16834	79385.63412	2628.88432
0.16788	79331.16627	2627.88432
0.16742	79276.75763	2626.88432
0.16696	79222.40797	2625.88432
0.16651	79168.11704	2624.88432
0.16605	79113.88461	2623.88432
0.16560	79059.71044	2622.88432
0.16515	79005.59431	2621.88432
0.16469	78951.53598	2620.88432
0.16424	78897.53522	2619.88432
0.16379	78843.59179	2618.88432
0.16335	78789.70548	2617.88432
0.16290	78735.87605	2616.88432
0.16246	78682.10328	2615.88432
0.16201	78628.38693	2614.88432
0.16157	78574.72680	2613.88432
0.16113	78521.12265	2612.88432
0.16069	78467.57427	2611.88432
0.16025	78414.08143	2610.88432
0.15981	78360.64391	2609.88432
0.15938	78307.26150	2608.88432
0.15894	78253.93397	2607.88432
0.15851	78200.66112	2606.88432
0.15808	78147.44273	2605.88432
0.15764	78094.27859	2604.88432
0.15721	78041.16847	2603.88432
0.15679	77988.11218	2602.88432
0.15636	77935.10950	2601.88432
0.15593	77882.16022	2600.88432
0.15551	77829.26413	2599.88432
0.15508	77776.42103	2598.88432
0.15466	77723.63071	2597.88432
0.15424	77670.89296	2596.88432
0.15382	77618.20759	2595.88432
0.15340	77565.57438	2594.88432
0.15298	77512.99314	2593.88432
0.15256	77460.46367	2592.88432
0.15215	77407.98576	2591.88432
0.15173	77355.55922	2590.88432
0.15132	77303.18385	2589.88432
0.15091	77250.85945	2588.88432
0.15050	77198.58583	2587.88432
0.15009	77146.36279	2586.88432
0.14968	77094.19014	2585.88432
0.14927	77042.06769	2584.88432
0.14886	76989.99525	2583.88432
0.14846	76937.97261	2582.88432
0.14805	76885.99960	2581.88432
0.14765	76834.07603	2580.88432
0.14725	76782.20170	2579.88432
0.14685	76730.37644	2578.88432
0.14645	76678.60005	2577.88432
0.14605	76626.87235	2576.88432
0.14565	76575.19315	2575.88432
0.14525	76523.56228	2574.88432
0.14486	76471.97954	2573.88432
0.14446	76420.44477	2572.88432
0.14407	76368.95777	2571.88432
0.14367	76317.51837	2570.88432
0.14328	76266.12640	2569.88432
0.14289	76214.78166	2568.88432
0.14250	76163.48399	2567.88432
0.14211	76112.23321	2566.88432
0.14173	76061.02915	2565.88432
0.14134	76009.87163	2564.88432
0.14095	75958.76047	2563.88432
0.14057	75907.69551	2562.88432
0.14019	75856.67657	2561.88432
0.13980	75805.70349	2560.88432
0.13942	75754.77609	2559.88432
0.13904	75703.89420	2558.88432
0.13866	75653.05766	2557.88432
0.13828	75602.26630	2556.88432
0.13791	75551.51995	2555.88432
0.13753	75500.81844	2554.88432
0.13716	75450.16162	2553.88432
0.13678	75399.54932	2552.88432
0.13641	75348.98137	2551.88432
0.13604	75298.45761	2550.88432
0.13566	75247.97788	2549.88432
0.13529	75197.54202	2548.88432
0.13492	75147.14987	2547.88432
0.13455	75096.80127	2546.88432
0.13419	75046.49606	2545.88432
0.13382	74996.23409	2544.88432
0.13345	74946.01519	2543.88432
0.13309	74895.83922	2542.88432
0.13272	74845.70601	2541.88432
0.13236	74795.61541	2540.88432
0.13200	74745.56727	2539.88432
0.13164	74695.56143	2538.88432
0.13128	74645.59775	2537.88432
0.13092	74595.67606	2536.88432
0.13056	74545.79623	2535.88432
0.13020	74495.95809	2534.88432
0.12985	74446.16150	2533.88432
0.12949	74396.40632	2532.88432
0.12913	74346.69239	2531.88432
0.12878	74297.01956	2530.88432
0.12843	74247.38770	2529.88432
0.12808	74197.79664	2528.88432
0.12772	74148.24626	2527.88432
0.12737	74098.73640	2526.88432
0.12702	74049.26692	2525.88432
0.12667	73999.83768	2524.88432
0.12633	73950.44853	2523.88432
0.12598	73901.09934	2522.88432
0.12563	73851.78996	2521.88432
0.12529	73802.52025	2520.88432
0.12494	73753.29008	2519.88432
0.12460	73704.09930	2518.88432
0.12426	73654.94777	2517.88432
0.12391	73605.83536	2516.88432
0.12357	73556.76193	2515.88432
0.12323	73507.72735	2514.88432
0.12289	73458.73148	2513.88432
0.12255	73409.77418	2512.88432
0.12222	73360.85532	2511.88432
0.12188	73311.97476	2510.88432
0.12154	73263.13238	2509.88432
0.12121	73214.32803	2508.88432
0.12087	73165.56160	2507.88432
0.12054	73116.83294	2506.88432
0.12020	73068.14193	2505.88432
0.11987	73019.48843	2504.88432
0.11954	72970.87233	2503.88432
