Mole fraction of liquid	Heat per mole [J]	Temperature [K]
1.00000	1.34292E5	3162.18932
0.99997	1.34286E5	3162.09370
0.99537	1.34048E5	3161.09370
0.99079	1.33812E5	3160.09370
0.98625	1.33577E5	3159.09370
0.98173	1.33343E5	3158.09370
0.97724	1.33110E5	3157.09370
0.97278	1.32879E5	3156.09370
0.96835	1.32649E5	3155.09370
0.96394	1.32420E5	3154.09370
0.95956	1.32192E5	3153.09370
0.95521	1.31966E5	3152.09370
0.95089	1.31741E5	3151.09370
0.94660	1.31517E5	3150.09370
0.94233	1.31294E5	3149.09370
0.93808	1.31073E5	3148.09370
0.93387	1.30853E5	3147.09370
0.92968	1.30633E5	3146.09370
0.92551	1.30416E5	3145.09370
0.92138	1.30199E5	3144.09370
0.91726	1.29983E5	3143.09370
0.91318	1.29769E5	3142.09370
0.90911	1.29555E5	3141.09370
0.90508	1.29343E5	3140.09370
0.90106	1.29132E5	3139.09370
0.89708	1.28922E5	3138.09370
0.89311	1.28713E5	3137.09370
0.88917	1.28505E5	3136.09370
0.88526	1.28299E5	3135.09370
0.88136	1.28093E5	3134.09370
0.87750	1.27888E5	3133.09370
0.87365	1.27685E5	3132.09370
0.86983	1.27482E5	3131.09370
0.86603	1.27281E5	3130.09370
0.86225	1.27081E5	3129.09370
0.85850	1.26881E5	3128.09370
0.85477	1.26683E5	3127.09370
0.85106	1.26485E5	3126.09370
0.84738	1.26289E5	3125.09370
0.84371	1.26093E5	3124.09370
0.84007	1.25899E5	3123.09370
0.83645	1.25706E5	3122.09370
0.83285	1.25513E5	3121.09370
0.82927	1.25321E5	3120.09370
0.82571	1.25131E5	3119.09370
0.82218	1.24941E5	3118.09370
0.81866	1.24752E5	3117.09370
0.81516	1.24565E5	3116.09370
0.81169	1.24378E5	3115.09370
0.80824	1.24192E5	3114.09370
0.80480	1.24007E5	3113.09370
0.80139	1.23823E5	3112.09370
0.79799	1.23639E5	3111.09370
0.79462	1.23457E5	3110.09370
0.79127	1.23275E5	3109.09370
0.78793	1.23095E5	3108.09370
0.78461	1.22915E5	3107.09370
0.78132	1.22736E5	3106.09370
0.77804	1.22558E5	3105.09370
0.77478	1.22381E5	3104.09370
0.77154	1.22204E5	3103.09370
0.76832	1.22029E5	3102.09370
0.76511	1.21854E5	3101.09370
0.76193	1.21680E5	3100.09370
0.75876	1.21507E5	3099.09370
0.75561	1.21334E5	3098.09370
0.75248	1.21163E5	3097.09370
0.74937	1.20992E5	3096.09370
0.74627	1.20822E5	3095.09370
0.74320	1.20653E5	3094.09370
0.74013	1.20485E5	3093.09370
0.73709	1.20317E5	3092.09370
0.73406	1.20150E5	3091.09370
0.73106	1.19984E5	3090.09370
0.72806	1.19819E5	3089.09370
0.72509	1.19654E5	3088.09370
0.72213	1.19490E5	3087.09370
0.71919	1.19327E5	3086.09370
0.71626	1.19165E5	3085.09370
0.71335	1.19003E5	3084.09370
0.71045	1.18842E5	3083.09370
0.70758	1.18682E5	3082.09370
0.70471	1.18522E5	3081.09370
0.70187	1.18364E5	3080.09370
0.69904	1.18205E5	3079.09370
0.69622	1.18048E5	3078.09370
0.69342	1.17891E5	3077.09370
0.69064	1.17735E5	3076.09370
0.68787	1.17580E5	3075.09370
0.68512	1.17425E5	3074.09370
0.68238	1.17271E5	3073.09370
0.67965	1.17118E5	3072.09370
0.67695	1.16965E5	3071.09370
0.67425	1.16813E5	3070.09370
0.67157	1.16661E5	3069.09370
0.66891	1.16511E5	3068.09370
0.66626	1.16361E5	3067.09370
0.66362	1.16211E5	3066.09370
0.66100	1.16062E5	3065.09370
0.65839	1.15914E5	3064.09370
0.65579	1.15766E5	3063.09370
0.65321	1.15619E5	3062.09370
0.65065	1.15473E5	3061.09370
0.64809	1.15327E5	3060.09370
0.64556	1.15182E5	3059.09370
0.64303	1.15037E5	3058.09370
0.64052	1.14893E5	3057.09370
0.63802	1.14750E5	3056.09370
0.63553	1.14607E5	3055.09370
0.63306	1.14465E5	3054.09370
0.63060	1.14323E5	3053.09370
0.62815	1.14182E5	3052.09370
0.62572	1.14041E5	3051.09370
0.62330	1.13902E5	3050.09370
0.62089	1.13762E5	3049.09370
0.61850	1.13623E5	3048.09370
0.61611	1.13485E5	3047.09370
0.61374	1.13347E5	3046.09370
0.61138	1.13210E5	3045.09370
0.60904	1.13073E5	3044.09370
0.60670	1.12937E5	3043.09370
0.60438	1.12802E5	3042.09370
0.60207	1.12667E5	3041.09370
0.59978	1.12532E5	3040.09370
0.59749	1.12398E5	3039.09370
0.59522	1.12265E5	3038.09370
0.59295	1.12132E5	3037.09370
0.59070	1.11999E5	3036.09370
0.58846	1.11867E5	3035.09370
0.58624	1.11736E5	3034.09370
0.58402	1.11605E5	3033.09370
0.58181	1.11475E5	3032.09370
0.57962	1.11345E5	3031.09370
0.57744	1.11215E5	3030.09370
0.57527	1.11086E5	3029.09370
0.57311	1.10958E5	3028.09370
0.57096	1.10830E5	3027.09370
0.56882	1.10702E5	3026.09370
0.56669	1.10575E5	3025.09370
0.56457	1.10449E5	3024.09370
0.56247	1.10323E5	3023.09370
0.56037	1.10197E5	3022.09370
0.55829	1.10072E5	3021.09370
0.55621	1.09947E5	3020.09370
0.55415	1.09823E5	3019.09370
0.55209	1.09699E5	3018.09370
0.55005	1.09576E5	3017.09370
0.54802	1.09453E5	3016.09370
0.54599	1.09330E5	3015.09370
0.54398	1.09208E5	3014.09370
0.54197	1.09087E5	3013.09370
0.53998	1.08966E5	3012.09370
0.53800	1.08845E5	3011.09370
0.53602	1.08725E5	3010.09370
0.53406	1.08605E5	3009.09370
0.53210	1.08486E5	3008.09370
0.53016	1.08367E5	3007.09370
0.52822	1.08248E5	3006.09370
0.52630	1.08130E5	3005.09370
0.52438	1.08012E5	3004.09370
0.52247	1.07895E5	3003.09370
0.52058	1.07778E5	3002.09370
0.51869	1.07661E5	3001.09370
0.51681	1.07545E5	3000.09370
0.51494	1.07429E5	2999.09370
0.51308	1.07314E5	2998.09370
0.51123	1.07199E5	2997.09370
0.50938	1.07085E5	2996.09370
0.50755	1.06970E5	2995.09370
0.50572	1.06857E5	2994.09370
0.50391	1.06743E5	2993.09370
0.50210	1.06630E5	2992.09370
0.50030	1.06518E5	2991.09370
0.49851	1.06405E5	2990.09370
0.49673	1.06294E5	2989.09370
0.49495	1.06182E5	2988.09370
0.49319	1.06071E5	2987.09370
0.49143	1.05960E5	2986.09370
0.48968	1.05850E5	2985.09370
0.48794	1.05740E5	2984.09370
0.48621	1.05630E5	2983.09370
0.48449	1.05521E5	2982.09370
0.48277	1.05412E5	2981.09370
0.48106	1.05303E5	2980.09370
0.47936	1.05195E5	2979.09370
0.47767	1.05087E5	2978.09370
0.47599	1.04980E5	2977.09370
0.47431	1.04872E5	2976.09370
0.47265	1.04766E5	2975.09370
0.47099	1.04659E5	2974.09370
0.46933	1.04553E5	2973.09370
0.46769	1.04447E5	2972.09370
0.46605	1.04341E5	2971.09370
0.46442	1.04236E5	2970.09370
0.46280	1.04131E5	2969.09370
0.46119	1.04027E5	2968.09370
0.45958	1.03923E5	2967.09370
0.45798	1.03819E5	2966.09370
0.45639	1.03715E5	2965.09370
0.45481	1.03612E5	2964.09370
0.45323	1.03509E5	2963.09370
0.45166	1.03406E5	2962.09370
0.45010	1.03304E5	2961.09370
0.44854	1.03202E5	2960.09370
0.44699	1.03100E5	2959.09370
0.44545	1.02999E5	2958.09370
0.44392	1.02898E5	2957.09370
0.44239	1.02797E5	2956.09370
0.44087	1.02697E5	2955.09370
0.43936	1.02597E5	2954.09370
0.43785	1.02497E5	2953.09370
0.43635	1.02397E5	2952.09370
0.43486	1.02298E5	2951.09370
0.43337	1.02199E5	2950.09370
0.43189	1.02100E5	2949.09370
0.43042	1.02002E5	2948.09370
0.42895	1.01904E5	2947.09370
0.42749	1.01806E5	2946.09370
0.42604	1.01709E5	2945.09370
0.42459	1.01611E5	2944.09370
0.42315	1.01514E5	2943.09370
0.42172	1.01418E5	2942.09370
0.42029	1.01321E5	2941.09370
0.41887	1.01225E5	2940.09370
0.41746	1.01129E5	2939.09370
0.41605	1.01034E5	2938.09370
0.41465	1.00938E5	2937.09370
0.41325	1.00843E5	2936.09370
0.41186	1.00749E5	2935.09370
0.41048	1.00654E5	2934.09370
0.40910	1.00560E5	2933.09370
0.40773	1.00466E5	2932.09370
0.40637	1.00372E5	2931.09370
0.40501	1.00279E5	2930.09370
0.40365	1.00186E5	2929.09370
0.40231	1.00093E5	2928.09370
0.40097	99999.89952	2927.09370
0.39963	99907.46569	2926.09370
0.39830	99815.28421	2925.09370
0.39698	99723.35360	2924.09370
0.39566	99631.67239	2923.09370
0.39435	99540.23911	2922.09370
0.39304	99449.05232	2921.09370
0.39174	99358.11057	2920.09370
0.39044	99267.41243	2919.09370
0.38915	99176.95648	2918.09370
0.38787	99086.74131	2917.09370
0.38659	98996.76553	2916.09370
0.38532	98907.02773	2915.09370
0.38405	98817.52654	2914.09370
0.38279	98728.26059	2913.09370
0.38153	98639.22852	2912.09370
0.38028	98550.42898	2911.09370
0.37903	98461.86063	2910.09370
0.37779	98373.52212	2909.09370
0.37656	98285.41215	2908.09370
0.37532	98197.52940	2907.09370
0.37410	98109.87257	2906.09370
0.37288	98022.44035	2905.09370
0.37167	97935.23147	2904.09370
0.37046	97848.24465	2903.09370
0.36925	97761.47862	2902.09370
0.36805	97674.93212	2901.09370
0.36686	97588.60390	2900.09370
0.36567	97502.49273	2899.09370
0.36448	97416.59737	2898.09370
0.36330	97330.91659	2897.09370
0.36213	97245.44918	2896.09370
0.36096	97160.19394	2895.09370
0.35980	97075.14967	2894.09370
0.35864	96990.31517	2893.09370
0.35748	96905.68926	2892.09370
0.35633	96821.27078	2891.09370
0.35519	96737.05856	2890.09370
0.35405	96653.05143	2889.09370
0.35291	96569.24825	2888.09370
0.35178	96485.64789	2887.09370
0.35065	96402.24920	2886.09370
0.34953	96319.05106	2885.09370
0.34841	96236.05235	2884.09370
0.34730	96153.25196	2883.09370
0.34619	96070.64879	2882.09370
0.34509	95988.24175	2881.09370
0.34399	95906.02975	2880.09370
0.34290	95824.01170	2879.09370
0.34181	95742.18654	2878.09370
0.34072	95660.55320	2877.09370
0.33964	95579.11062	2876.09370
0.33856	95497.85775	2875.09370
0.33749	95416.79355	2874.09370
0.33642	95335.91698	2873.09370
0.33536	95255.22701	2872.09370
0.33430	95174.72262	2871.09370
0.33325	95094.40279	2870.09370
0.33220	95014.26652	2869.09370
0.33115	94934.31280	2868.09370
0.33011	94854.54064	2867.09370
0.32907	94774.94904	2866.09370
0.32804	94695.53704	2865.09370
0.32701	94616.30364	2864.09370
0.32598	94537.24789	2863.09370
0.32496	94458.36882	2862.09370
0.32394	94379.66548	2861.09370
0.32293	94301.13691	2860.09370
0.32192	94222.78217	2859.09370
0.32092	94144.60033	2858.09370
0.31991	94066.59046	2857.09370
0.31892	93988.75163	2856.09370
0.31792	93911.08292	2855.09370
0.31693	93833.58342	2854.09370
0.31595	93756.25223	2853.09370
0.31497	93679.08844	2852.09370
0.31399	93602.09117	2851.09370
0.31302	93525.25952	2850.09370
0.31205	93448.59261	2849.09370
0.31108	93372.08956	2848.09370
0.31012	93295.74951	2847.09370
0.30916	93219.57159	2846.09370
0.30820	93143.55494	2845.09370
0.30725	93067.69871	2844.09370
0.30631	92992.00205	2843.09370
0.30536	92916.46411	2842.09370
0.30442	92841.08406	2841.09370
0.30349	92765.86107	2840.09370
0.30255	92690.79431	2839.09370
0.30162	92615.88297	2838.09370
0.30070	92541.12622	2837.09370
0.29978	92466.52325	2836.09370
0.29886	92392.07327	2835.09370
0.29794	92317.77547	2834.09370
0.29703	92243.62906	2833.09370
0.29613	92169.63325	2832.09370
0.29522	92095.78725	2831.09370
0.29432	92022.09029	2830.09370
0.29342	91948.54159	2829.09370
0.29253	91875.14038	2828.09370
0.29164	91801.88591	2827.09370
0.29075	91728.77740	2826.09370
0.28987	91655.81411	2825.09370
0.28899	91582.99528	2824.09370
0.28811	91510.32018	2823.09370
0.28724	91437.78806	2822.09370
0.28637	91365.39819	2821.09370
0.28550	91293.14983	2820.09370
0.28464	91221.04227	2819.09370
0.28378	91149.07478	2818.09370
0.28292	91077.24664	2817.09370
0.28207	91005.55714	2816.09370
0.28121	90934.00557	2815.09370
0.28037	90862.59124	2814.09370
0.27952	90791.31344	2813.09370
0.27868	90720.17148	2812.09370
0.27784	90649.16468	2811.09370
0.27701	90578.29233	2810.09370
0.27618	90507.55377	2809.09370
0.27535	90436.94832	2808.09370
0.27452	90366.47530	2807.09370
0.27370	90296.13405	2806.09370
0.27288	90225.92390	2805.09370
0.27206	90155.84419	2804.09370
0.27125	90085.89427	2803.09370
0.27044	90016.07349	2802.09370
0.26963	89946.38119	2801.09370
0.26883	89876.81674	2800.09370
0.26803	89807.37950	2799.09370
0.26723	89738.06882	2798.09370
0.26643	89668.88409	2797.09370
0.26564	89599.82466	2796.09370
0.26485	89530.88993	2795.09370
0.26406	89462.07926	2794.09370
0.26328	89393.39205	2793.09370
0.26250	89324.82767	2792.09370
0.26172	89256.38553	2791.09370
0.26095	89188.06501	2790.09370
0.26017	89119.86553	2789.09370
0.25940	89051.78647	2788.09370
0.25864	88983.82725	2787.09370
0.25787	88915.98727	2786.09370
0.25711	88848.26596	2785.09370
0.25635	88780.66272	2784.09370
0.25560	88713.17699	2783.09370
0.25484	88645.80817	2782.09370
0.25409	88578.55571	2781.09370
0.25334	88511.41904	2780.09370
0.25260	88444.39758	2779.09370
0.25186	88377.49078	2778.09370
0.25112	88310.69808	2777.09370
0.25038	88244.01893	2776.09370
0.24965	88177.45277	2775.09370
0.24891	88110.99905	2774.09370
0.24818	88044.65724	2773.09370
0.24746	87978.42679	2772.09370
0.24673	87912.30716	2771.09370
0.24601	87846.29782	2770.09370
0.24529	87780.39823	2769.09370
0.24458	87714.60787	2768.09370
0.24386	87648.92622	2767.09370
0.24315	87583.35275	2766.09370
0.24244	87517.88693	2765.09370
0.24174	87452.52827	2764.09370
0.24103	87387.27624	2763.09370
0.24033	87322.13034	2762.09370
0.23963	87257.09005	2761.09370
0.23894	87192.15488	2760.09370
0.23824	87127.32433	2759.09370
0.23755	87062.59789	2758.09370
0.23686	86997.97508	2757.09370
0.23618	86933.45539	2756.09370
0.23549	86869.03835	2755.09370
0.23481	86804.72347	2754.09370
0.23413	86740.51027	2753.09370
0.23345	86676.39826	2752.09370
0.23278	86612.38697	2751.09370
0.23211	86548.47592	2750.09370
0.23143	86484.66464	2749.09370
0.23077	86420.95268	2748.09370
0.23010	86357.33954	2747.09370
0.22944	86293.82479	2746.09370
0.22878	86230.40795	2745.09370
0.22812	86167.08857	2744.09370
0.22746	86103.86619	2743.09370
0.22681	86040.74036	2742.09370
0.22616	85977.71063	2741.09370
0.22551	85914.77656	2740.09370
0.22486	85851.93770	2739.09370
0.22421	85789.19361	2738.09370
0.22357	85726.54384	2737.09370
0.22293	85663.98797	2736.09370
0.22229	85601.52556	2735.09370
0.22165	85539.15618	2734.09370
0.22102	85476.87939	2733.09370
0.22039	85414.69478	2732.09370
0.21976	85352.60192	2731.09370
0.21913	85290.60038	2730.09370
0.21850	85228.68975	2729.09370
0.21788	85166.86961	2728.09370
0.21726	85105.13955	2727.09370
0.21664	85043.49915	2726.09370
0.21602	84981.94801	2725.09370
0.21540	84920.48572	2724.09370
0.21479	84859.11188	2723.09370
0.21418	84797.82607	2722.09370
0.21357	84736.62791	2721.09370
0.21296	84675.51699	2720.09370
0.21236	84614.49292	2719.09370
0.21175	84553.55531	2718.09370
0.21115	84492.70376	2717.09370
0.21055	84431.93788	2716.09370
0.20996	84371.25730	2715.09370
0.20936	84310.66162	2714.09370
0.20877	84250.15047	2713.09370
0.20817	84189.72346	2712.09370
0.20759	84129.38021	2711.09370
0.20700	84069.12036	2710.09370
0.20641	84008.94352	2709.09370
0.20583	83948.84933	2708.09370
0.20525	83888.83742	2707.09370
0.20467	83828.90741	2706.09370
0.20409	83769.05895	2705.09370
0.20351	83709.29167	2704.09370
0.20294	83649.60521	2703.09370
0.20237	83589.99922	2702.09370
0.20179	83530.47333	2701.09370
0.20123	83471.02719	2700.09370
0.20066	83411.66044	2699.09370
0.20009	83352.37275	2698.09370
0.19953	83293.16375	2697.09370
0.19897	83234.03311	2696.09370
0.19841	83174.98047	2695.09370
0.19785	83116.00549	2694.09370
0.19730	83057.10784	2693.09370
0.19674	82998.28717	2692.09370
0.19619	82939.54315	2691.09370
0.19564	82880.87544	2690.09370
0.19509	82822.28370	2689.09370
0.19454	82763.76761	2688.09370
0.19400	82705.32684	2687.09370
0.19345	82646.96105	2686.09370
0.19291	82588.66993	2685.09370
0.19237	82530.45315	2684.09370
0.19183	82472.31038	2683.09370
0.19130	82414.24130	2682.09370
0.19076	82356.24561	2681.09370
0.19023	82298.32297	2680.09370
0.18970	82240.47307	2679.09370
0.18917	82182.69560	2678.09370
0.18864	82124.99025	2677.09370
0.18811	82067.35671	2676.09370
0.18758	82009.79467	2675.09370
0.18706	81952.30382	2674.09370
0.18654	81894.88386	2673.09370
0.18602	81837.53448	2672.09370
0.18550	81780.25539	2671.09370
0.18498	81723.04627	2670.09370
0.18447	81665.90684	2669.09370
0.18395	81608.83680	2668.09370
0.18344	81551.83585	2667.09370
0.18293	81494.90369	2666.09370
0.18242	81438.04005	2665.09370
0.18192	81381.24461	2664.09370
0.18141	81324.51711	2663.09370
0.18090	81267.85725	2662.09370
0.18040	81211.26474	2661.09370
0.17990	81154.73930	2660.09370
0.17940	81098.28064	2659.09370
0.17890	81041.88850	2658.09370
0.17841	80985.56258	2657.09370
0.17791	80929.30261	2656.09370
0.17742	80873.10831	2655.09370
0.17693	80816.97942	2654.09370
0.17643	80760.91564	2653.09370
0.17595	80704.91672	2652.09370
0.17546	80648.98238	2651.09370
0.17497	80593.11235	2650.09370
0.17449	80537.30637	2649.09370
0.17400	80481.56416	2648.09370
0.17352	80425.88547	2647.09370
0.17304	80370.27004	2646.09370
0.17256	80314.71759	2645.09370
0.17208	80259.22786	2644.09370
0.17161	80203.80061	2643.09370
0.17113	80148.43557	2642.09370
0.17066	80093.13248	2641.09370
0.17019	80037.89110	2640.09370
0.16972	79982.71116	2639.09370
0.16925	79927.59241	2638.09370
0.16878	79872.53461	2637.09370
0.16832	79817.53750	2636.09370
0.16785	79762.60084	2635.09370
0.16739	79707.72438	2634.09370
0.16693	79652.90786	2633.09370
0.16646	79598.15106	2632.09370
0.16601	79543.45372	2631.09370
0.16555	79488.81561	2630.09370
0.16509	79434.23648	2629.09370
0.16464	79379.71609	2628.09370
0.16418	79325.25421	2627.09370
0.16373	79270.85060	2626.09370
0.16328	79216.50502	2625.09370
0.16283	79162.21724	2624.09370
0.16238	79107.98703	2623.09370
0.16193	79053.81416	2622.09370
0.16148	78999.69839	2621.09370
0.16104	78945.63949	2620.09370
0.16060	78891.63724	2619.09370
0.16015	78837.69141	2618.09370
0.15971	78783.80178	2617.09370
0.15927	78729.96811	2616.09370
0.15883	78676.19019	2615.09370
0.15840	78622.46780	2614.09370
0.15796	78568.80071	2613.09370
0.15753	78515.18870	2612.09370
0.15709	78461.63156	2611.09370
0.15666	78408.12906	2610.09370
0.15623	78354.68099	2609.09370
0.15580	78301.28714	2608.09370
0.15537	78247.94729	2607.09370
0.15494	78194.66123	2606.09370
0.15452	78141.42874	2605.09370
0.15409	78088.24962	2604.09370
0.15367	78035.12365	2603.09370
0.15325	77982.05063	2602.09370
0.15283	77929.03035	2601.09370
0.15241	77876.06260	2600.09370
0.15199	77823.14717	2599.09370
0.15157	77770.28387	2598.09370
0.15115	77717.47248	2597.09370
0.15074	77664.71281	2596.09370
0.15032	77612.00466	2595.09370
0.14991	77559.34782	2594.09370
0.14950	77506.74209	2593.09370
0.14909	77454.18728	2592.09370
0.14868	77401.68319	2591.09370
0.14827	77349.22962	2590.09370
0.14786	77296.82638	2589.09370
0.14745	77244.47328	2588.09370
0.14705	77192.17011	2587.09370
0.14664	77139.91669	2586.09370
0.14624	77087.71283	2585.09370
0.14584	77035.55834	2584.09370
0.14544	76983.45302	2583.09370
0.14504	76931.39669	2582.09370
0.14464	76879.38916	2581.09370
0.14424	76827.43024	2580.09370
0.14385	76775.51976	2579.09370
0.14345	76723.65751	2578.09370
0.14306	76671.84333	2577.09370
0.14266	76620.07703	2576.09370
0.14227	76568.35842	2575.09370
0.14188	76516.68733	2574.09370
0.14149	76465.06357	2573.09370
0.14110	76413.48697	2572.09370
0.14071	76361.95734	2571.09370
0.14033	76310.47452	2570.09370
0.13994	76259.03832	2569.09370
0.13956	76207.64856	2568.09370
0.13917	76156.30509	2567.09370
0.13879	76105.00771	2566.09370
0.13841	76053.75625	2565.09370
0.13803	76002.55056	2564.09370
0.13765	75951.39044	2563.09370
0.13727	75900.27574	2562.09370
0.13689	75849.20628	2561.09370
0.13651	75798.18190	2560.09370
0.13614	75747.20242	2559.09370
0.13576	75696.26768	2558.09370
0.13539	75645.37752	2557.09370
0.13502	75594.53177	2556.09370
0.13464	75543.73026	2555.09370
0.13427	75492.97283	2554.09370
0.13390	75442.25931	2553.09370
0.13353	75391.58955	2552.09370
0.13317	75340.96339	2551.09370
0.13280	75290.38066	2550.09370
0.13243	75239.84120	2549.09370
0.13207	75189.34485	2548.09370
0.13170	75138.89147	2547.09370
0.13134	75088.48088	2546.09370
0.13098	75038.11293	2545.09370
0.13062	74987.78747	2544.09370
0.13025	74937.50434	2543.09370
0.12990	74887.26339	2542.09370
0.12954	74837.06446	2541.09370
0.12918	74786.90740	2540.09370
0.12882	74736.79206	2539.09370
0.12847	74686.71829	2538.09370
0.12811	74636.68593	2537.09370
0.12776	74586.69484	2536.09370
0.12740	74536.74486	2535.09370
0.12705	74486.83586	2534.09370
0.12670	74436.96767	2533.09370
0.12635	74387.14016	2532.09370
0.12600	74337.35318	2531.09370
0.12565	74287.60657	2530.09370
0.12530	74237.90021	2529.09370
0.12495	74188.23394	2528.09370
0.12461	74138.60761	2527.09370
0.12426	74089.02110	2526.09370
0.12392	74039.47424	2525.09370
0.12357	73989.96691	2524.09370
0.12323	73940.49896	2523.09370
0.12289	73891.07025	2522.09370
0.12255	73841.68065	2521.09370
0.12221	73792.33001	2520.09370
0.12187	73743.01819	2519.09370
0.12153	73693.74506	2518.09370
0.12119	73644.51048	2517.09370
0.12085	73595.31431	2516.09370
0.12052	73546.15643	2515.09370
0.12018	73497.03669	2514.09370
0.11985	73447.95495	2513.09370
0.11951	73398.91110	2512.09370
0.11918	73349.90499	2511.09370
0.11885	73300.93648	2510.09370
0.11851	73252.00546	2509.09370
0.11818	73203.11178	2508.09370
0.11785	73154.25532	2507.09370
0.11752	73105.43595	2506.09370
