Mole fraction of liquid	Heat per mole [J]	Temperature [K]
1.00000	1.38383E5	3228.35241
0.99997	1.38378E5	3228.25679
0.99471	1.38105E5	3227.25679
0.98950	1.37835E5	3226.25679
0.98432	1.37566E5	3225.25679
0.97917	1.37299E5	3224.25679
0.97407	1.37034E5	3223.25679
0.96900	1.36771E5	3222.25679
0.96397	1.36509E5	3221.25679
0.95898	1.36249E5	3220.25679
0.95402	1.35990E5	3219.25679
0.94909	1.35734E5	3218.25679
0.94421	1.35478E5	3217.25679
0.93935	1.35225E5	3216.25679
0.93453	1.34973E5	3215.25679
0.92975	1.34722E5	3214.25679
0.92500	1.34474E5	3213.25679
0.92028	1.34226E5	3212.25679
0.91560	1.33980E5	3211.25679
0.91095	1.33736E5	3210.25679
0.90633	1.33493E5	3209.25679
0.90175	1.33252E5	3208.25679
0.89720	1.33012E5	3207.25679
0.89267	1.32774E5	3206.25679
0.88819	1.32537E5	3205.25679
0.88373	1.32302E5	3204.25679
0.87930	1.32067E5	3203.25679
0.87490	1.31835E5	3202.25679
0.87054	1.31604E5	3201.25679
0.86620	1.31374E5	3200.25679
0.86190	1.31145E5	3199.25679
0.85762	1.30918E5	3198.25679
0.85338	1.30692E5	3197.25679
0.84916	1.30468E5	3196.25679
0.84497	1.30245E5	3195.25679
0.84081	1.30023E5	3194.25679
0.83668	1.29802E5	3193.25679
0.83258	1.29583E5	3192.25679
0.82850	1.29365E5	3191.25679
0.82445	1.29148E5	3190.25679
0.82043	1.28933E5	3189.25679
0.81644	1.28719E5	3188.25679
0.81247	1.28506E5	3187.25679
0.80853	1.28294E5	3186.25679
0.80462	1.28083E5	3185.25679
0.80073	1.27874E5	3184.25679
0.79687	1.27666E5	3183.25679
0.79304	1.27459E5	3182.25679
0.78923	1.27253E5	3181.25679
0.78544	1.27048E5	3180.25679
0.78168	1.26845E5	3179.25679
0.77795	1.26642E5	3178.25679
0.77424	1.26441E5	3177.25679
0.77055	1.26241E5	3176.25679
0.76689	1.26042E5	3175.25679
0.76325	1.25844E5	3174.25679
0.75964	1.25647E5	3173.25679
0.75605	1.25451E5	3172.25679
0.75249	1.25256E5	3171.25679
0.74894	1.25063E5	3170.25679
0.74542	1.24870E5	3169.25679
0.74193	1.24678E5	3168.25679
0.73845	1.24488E5	3167.25679
0.73500	1.24298E5	3166.25679
0.73157	1.24110E5	3165.25679
0.72816	1.23922E5	3164.25679
0.72478	1.23735E5	3163.25679
0.72141	1.23550E5	3162.25679
0.71807	1.23365E5	3161.25679
0.71475	1.23182E5	3160.25679
0.71145	1.22999E5	3159.25679
0.70817	1.22817E5	3158.25679
0.70491	1.22636E5	3157.25679
0.70167	1.22457E5	3156.25679
0.69846	1.22278E5	3155.25679
0.69526	1.22100E5	3154.25679
0.69208	1.21923E5	3153.25679
0.68893	1.21746E5	3152.25679
0.68579	1.21571E5	3151.25679
0.68267	1.21397E5	3150.25679
0.67958	1.21223E5	3149.25679
0.67650	1.21051E5	3148.25679
0.67344	1.20879E5	3147.25679
0.67040	1.20708E5	3146.25679
0.66738	1.20538E5	3145.25679
0.66438	1.20369E5	3144.25679
0.66139	1.20200E5	3143.25679
0.65843	1.20033E5	3142.25679
0.65548	1.19866E5	3141.25679
0.65255	1.19700E5	3140.25679
0.64964	1.19535E5	3139.25679
0.64675	1.19371E5	3138.25679
0.64387	1.19208E5	3137.25679
0.64102	1.19045E5	3136.25679
0.63818	1.18883E5	3135.25679
0.63535	1.18722E5	3134.25679
0.63255	1.18562E5	3133.25679
0.62976	1.18402E5	3132.25679
0.62699	1.18243E5	3131.25679
0.62423	1.18085E5	3130.25679
0.62149	1.17928E5	3129.25679
0.61877	1.17772E5	3128.25679
0.61607	1.17616E5	3127.25679
0.61338	1.17461E5	3126.25679
0.61070	1.17306E5	3125.25679
0.60805	1.17153E5	3124.25679
0.60541	1.17000E5	3123.25679
0.60278	1.16848E5	3122.25679
0.60017	1.16696E5	3121.25679
0.59758	1.16545E5	3120.25679
0.59500	1.16395E5	3119.25679
0.59243	1.16246E5	3118.25679
0.58988	1.16097E5	3117.25679
0.58735	1.15949E5	3116.25679
0.58483	1.15801E5	3115.25679
0.58233	1.15655E5	3114.25679
0.57984	1.15509E5	3113.25679
0.57736	1.15363E5	3112.25679
0.57490	1.15218E5	3111.25679
0.57246	1.15074E5	3110.25679
0.57003	1.14931E5	3109.25679
0.56761	1.14788E5	3108.25679
0.56521	1.14646E5	3107.25679
0.56282	1.14504E5	3106.25679
0.56044	1.14363E5	3105.25679
0.55808	1.14223E5	3104.25679
0.55573	1.14083E5	3103.25679
0.55340	1.13944E5	3102.25679
0.55107	1.13805E5	3101.25679
0.54877	1.13667E5	3100.25679
0.54647	1.13530E5	3099.25679
0.54419	1.13393E5	3098.25679
0.54192	1.13257E5	3097.25679
0.53966	1.13122E5	3096.25679
0.53742	1.12986E5	3095.25679
0.53519	1.12852E5	3094.25679
0.53297	1.12718E5	3093.25679
0.53077	1.12585E5	3092.25679
0.52858	1.12452E5	3091.25679
0.52640	1.12320E5	3090.25679
0.52423	1.12188E5	3089.25679
0.52207	1.12057E5	3088.25679
0.51993	1.11926E5	3087.25679
0.51780	1.11796E5	3086.25679
0.51568	1.11667E5	3085.25679
0.51357	1.11538E5	3084.25679
0.51147	1.11409E5	3083.25679
0.50939	1.11281E5	3082.25679
0.50731	1.11154E5	3081.25679
0.50525	1.11027E5	3080.25679
0.50320	1.10901E5	3079.25679
0.50116	1.10775E5	3078.25679
0.49914	1.10649E5	3077.25679
0.49712	1.10524E5	3076.25679
0.49511	1.10400E5	3075.25679
0.49312	1.10276E5	3074.25679
0.49114	1.10153E5	3073.25679
0.48916	1.10030E5	3072.25679
0.48720	1.09907E5	3071.25679
0.48525	1.09785E5	3070.25679
0.48331	1.09664E5	3069.25679
0.48138	1.09543E5	3068.25679
0.47946	1.09422E5	3067.25679
0.47755	1.09302E5	3066.25679
0.47565	1.09182E5	3065.25679
0.47376	1.09063E5	3064.25679
0.47189	1.08944E5	3063.25679
0.47002	1.08826E5	3062.25679
0.46816	1.08708E5	3061.25679
0.46631	1.08591E5	3060.25679
0.46447	1.08474E5	3059.25679
0.46264	1.08357E5	3058.25679
0.46083	1.08241E5	3057.25679
0.45902	1.08125E5	3056.25679
0.45722	1.08010E5	3055.25679
0.45543	1.07895E5	3054.25679
0.45365	1.07781E5	3053.25679
0.45188	1.07667E5	3052.25679
0.45011	1.07553E5	3051.25679
0.44836	1.07440E5	3050.25679
0.44662	1.07327E5	3049.25679
0.44488	1.07215E5	3048.25679
0.44316	1.07103E5	3047.25679
0.44144	1.06992E5	3046.25679
0.43974	1.06880E5	3045.25679
0.43804	1.06770E5	3044.25679
0.43635	1.06659E5	3043.25679
0.43467	1.06549E5	3042.25679
0.43300	1.06440E5	3041.25679
0.43134	1.06331E5	3040.25679
0.42968	1.06222E5	3039.25679
0.42804	1.06113E5	3038.25679
0.42640	1.06005E5	3037.25679
0.42477	1.05898E5	3036.25679
0.42315	1.05790E5	3035.25679
0.42154	1.05684E5	3034.25679
0.41994	1.05577E5	3033.25679
0.41834	1.05471E5	3032.25679
0.41675	1.05365E5	3031.25679
0.41517	1.05259E5	3030.25679
0.41360	1.05154E5	3029.25679
0.41204	1.05050E5	3028.25679
0.41048	1.04945E5	3027.25679
0.40894	1.04841E5	3026.25679
0.40740	1.04737E5	3025.25679
0.40587	1.04634E5	3024.25679
0.40434	1.04531E5	3023.25679
0.40283	1.04428E5	3022.25679
0.40132	1.04326E5	3021.25679
0.39982	1.04224E5	3020.25679
0.39832	1.04122E5	3019.25679
0.39684	1.04021E5	3018.25679
0.39536	1.03920E5	3017.25679
0.39389	1.03819E5	3016.25679
0.39242	1.03719E5	3015.25679
0.39097	1.03619E5	3014.25679
0.38952	1.03519E5	3013.25679
0.38808	1.03420E5	3012.25679
0.38664	1.03321E5	3011.25679
0.38521	1.03222E5	3010.25679
0.38379	1.03123E5	3009.25679
0.38238	1.03025E5	3008.25679
0.38097	1.02927E5	3007.25679
0.37957	1.02830E5	3006.25679
0.37818	1.02733E5	3005.25679
0.37680	1.02636E5	3004.25679
0.37542	1.02539E5	3003.25679
0.37404	1.02443E5	3002.25679
0.37268	1.02347E5	3001.25679
0.37132	1.02251E5	3000.25679
0.36997	1.02155E5	2999.25679
0.36862	1.02060E5	2998.25679
0.36728	1.01965E5	2997.25679
0.36595	1.01871E5	2996.25679
0.36462	1.01777E5	2995.25679
0.36330	1.01682E5	2994.25679
0.36199	1.01589E5	2993.25679
0.36068	1.01495E5	2992.25679
0.35938	1.01402E5	2991.25679
0.35809	1.01309E5	2990.25679
0.35680	1.01217E5	2989.25679
0.35552	1.01124E5	2988.25679
0.35424	1.01032E5	2987.25679
0.35297	1.00940E5	2986.25679
0.35171	1.00849E5	2985.25679
0.35045	1.00757E5	2984.25679
0.34920	1.00666E5	2983.25679
0.34795	1.00576E5	2982.25679
0.34671	1.00485E5	2981.25679
0.34548	1.00395E5	2980.25679
0.34425	1.00305E5	2979.25679
0.34303	1.00215E5	2978.25679
0.34181	1.00126E5	2977.25679
0.34060	1.00036E5	2976.25679
0.33939	99947.42868	2975.25679
0.33820	99858.69693	2974.25679
0.33700	99770.21255	2973.25679
0.33581	99681.97399	2972.25679
0.33463	99593.97971	2971.25679
0.33345	99506.22820	2970.25679
0.33228	99418.71795	2969.25679
0.33111	99331.44745	2968.25679
0.32995	99244.41522	2967.25679
0.32880	99157.61978	2966.25679
0.32765	99071.05967	2965.25679
0.32650	98984.73345	2964.25679
0.32536	98898.63965	2963.25679
0.32423	98812.77686	2962.25679
0.32310	98727.14366	2961.25679
0.32198	98641.73863	2960.25679
0.32086	98556.56038	2959.25679
0.31974	98471.60752	2958.25679
0.31864	98386.87867	2957.25679
0.31753	98302.37246	2956.25679
0.31643	98218.08754	2955.25679
0.31534	98134.02256	2954.25679
0.31425	98050.17619	2953.25679
0.31317	97966.54710	2952.25679
0.31209	97883.13397	2951.25679
0.31102	97799.93549	2950.25679
0.30995	97716.95037	2949.25679
0.30888	97634.17733	2948.25679
0.30783	97551.61508	2947.25679
0.30677	97469.26236	2946.25679
0.30572	97387.11791	2945.25679
0.30468	97305.18048	2944.25679
0.30364	97223.44882	2943.25679
0.30260	97141.92172	2942.25679
0.30157	97060.59794	2941.25679
0.30054	96979.47628	2940.25679
0.29952	96898.55554	2939.25679
0.29851	96817.83450	2938.25679
0.29749	96737.31201	2937.25679
0.29649	96656.98686	2936.25679
0.29548	96576.85790	2935.25679
0.29448	96496.92397	2934.25679
0.29349	96417.18392	2933.25679
0.29250	96337.63659	2932.25679
0.29151	96258.28087	2931.25679
0.29053	96179.11561	2930.25679
0.28955	96100.13971	2929.25679
0.28858	96021.35206	2928.25679
0.28761	95942.75154	2927.25679
0.28665	95864.33708	2926.25679
0.28569	95786.10757	2925.25679
0.28473	95708.06195	2924.25679
0.28378	95630.19915	2923.25679
0.28283	95552.51809	2922.25679
0.28189	95475.01773	2921.25679
0.28095	95397.69703	2920.25679
0.28001	95320.55493	2919.25679
0.27908	95243.59041	2918.25679
0.27816	95166.80244	2917.25679
0.27723	95090.19001	2916.25679
0.27631	95013.75211	2915.25679
0.27540	94937.48772	2914.25679
0.27449	94861.39587	2913.25679
0.27358	94785.47555	2912.25679
0.27268	94709.72579	2911.25679
0.27178	94634.14562	2910.25679
0.27088	94558.73406	2909.25679
0.26999	94483.49015	2908.25679
0.26910	94408.41294	2907.25679
0.26822	94333.50149	2906.25679
0.26734	94258.75484	2905.25679
0.26646	94184.17208	2904.25679
0.26559	94109.75227	2903.25679
0.26472	94035.49449	2902.25679
0.26385	93961.39782	2901.25679
0.26299	93887.46137	2900.25679
0.26213	93813.68422	2899.25679
0.26128	93740.06548	2898.25679
0.26043	93666.60427	2897.25679
0.25958	93593.29970	2896.25679
0.25873	93520.15089	2895.25679
0.25789	93447.15698	2894.25679
0.25706	93374.31710	2893.25679
0.25622	93301.63039	2892.25679
0.25539	93229.09599	2891.25679
0.25457	93156.71307	2890.25679
0.25374	93084.48079	2889.25679
0.25292	93012.39830	2888.25679
0.25211	92940.46478	2887.25679
0.25130	92868.67941	2886.25679
0.25049	92797.04136	2885.25679
0.24968	92725.54983	2884.25679
0.24888	92654.20401	2883.25679
0.24808	92583.00311	2882.25679
0.24728	92511.94631	2881.25679
0.24649	92441.03284	2880.25679
0.24570	92370.26191	2879.25679
0.24491	92299.63275	2878.25679
0.24413	92229.14457	2877.25679
0.24335	92158.79661	2876.25679
0.24257	92088.58810	2875.25679
0.24180	92018.51830	2874.25679
0.24103	91948.58644	2873.25679
0.24026	91878.79178	2872.25679
0.23950	91809.13358	2871.25679
0.23874	91739.61109	2870.25679
0.23798	91670.22359	2869.25679
0.23722	91600.97035	2868.25679
0.23647	91531.85064	2867.25679
0.23572	91462.86375	2866.25679
0.23498	91394.00896	2865.25679
0.23424	91325.28558	2864.25679
0.23350	91256.69288	2863.25679
0.23276	91188.23018	2862.25679
0.23203	91119.89678	2861.25679
0.23129	91051.69199	2860.25679
0.23057	90983.61513	2859.25679
0.22984	90915.66551	2858.25679
0.22912	90847.84247	2857.25679
0.22840	90780.14532	2856.25679
0.22768	90712.57341	2855.25679
0.22697	90645.12607	2854.25679
0.22626	90577.80264	2853.25679
0.22555	90510.60248	2852.25679
0.22485	90443.52492	2851.25679
0.22414	90376.56933	2850.25679
0.22345	90309.73506	2849.25679
0.22275	90243.02149	2848.25679
0.22205	90176.42797	2847.25679
0.22136	90109.95388	2846.25679
0.22068	90043.59859	2845.25679
0.21999	89977.36149	2844.25679
0.21931	89911.24196	2843.25679
0.21863	89845.23939	2842.25679
0.21795	89779.35318	2841.25679
0.21727	89713.58270	2840.25679
0.21660	89647.92738	2839.25679
0.21593	89582.38661	2838.25679
0.21526	89516.95980	2837.25679
0.21460	89451.64636	2836.25679
0.21394	89386.44571	2835.25679
0.21328	89321.35726	2834.25679
0.21262	89256.38045	2833.25679
0.21197	89191.51470	2832.25679
0.21131	89126.75943	2831.25679
0.21066	89062.11409	2830.25679
0.21002	88997.57811	2829.25679
0.20937	88933.15094	2828.25679
0.20873	88868.83201	2827.25679
0.20809	88804.62078	2826.25679
0.20745	88740.51670	2825.25679
0.20682	88676.51923	2824.25679
0.20619	88612.62783	2823.25679
0.20556	88548.84195	2822.25679
0.20493	88485.16108	2821.25679
0.20431	88421.58466	2820.25679
0.20368	88358.11219	2819.25679
0.20306	88294.74313	2818.25679
0.20244	88231.47697	2817.25679
0.20183	88168.31319	2816.25679
0.20122	88105.25127	2815.25679
0.20061	88042.29070	2814.25679
0.20000	87979.43099	2813.25679
0.19939	87916.67162	2812.25679
0.19879	87854.01210	2811.25679
0.19818	87791.45192	2810.25679
0.19759	87728.99059	2809.25679
0.19699	87666.62763	2808.25679
0.19639	87604.36254	2807.25679
0.19580	87542.19483	2806.25679
0.19521	87480.12404	2805.25679
0.19462	87418.14967	2804.25679
0.19403	87356.27126	2803.25679
0.19345	87294.48832	2802.25679
0.19287	87232.80039	2801.25679
0.19229	87171.20701	2800.25679
0.19171	87109.70770	2799.25679
0.19114	87048.30202	2798.25679
0.19056	86986.98949	2797.25679
0.18999	86925.76966	2796.25679
0.18942	86864.64209	2795.25679
0.18886	86803.60632	2794.25679
0.18829	86742.66190	2793.25679
0.18773	86681.80839	2792.25679
0.18717	86621.04535	2791.25679
0.18661	86560.37234	2790.25679
0.18605	86499.78893	2789.25679
0.18550	86439.29467	2788.25679
0.18495	86378.88915	2787.25679
0.18439	86318.57193	2786.25679
0.18385	86258.34259	2785.25679
0.18330	86198.20070	2784.25679
0.18275	86138.14584	2783.25679
0.18221	86078.17760	2782.25679
0.18167	86018.29557	2781.25679
0.18113	85958.49932	2780.25679
0.18060	85898.78845	2779.25679
0.18006	85839.16256	2778.25679
0.17953	85779.62123	2777.25679
0.17900	85720.16407	2776.25679
0.17847	85660.79067	2775.25679
0.17794	85601.50064	2774.25679
0.17742	85542.29358	2773.25679
0.17689	85483.16910	2772.25679
0.17637	85424.12681	2771.25679
0.17585	85365.16632	2770.25679
0.17533	85306.28724	2769.25679
0.17482	85247.48920	2768.25679
0.17430	85188.77181	2767.25679
0.17379	85130.13469	2766.25679
0.17328	85071.57747	2765.25679
0.17277	85013.09977	2764.25679
0.17226	84954.70122	2763.25679
0.17176	84896.38145	2762.25679
0.17126	84838.14009	2761.25679
0.17075	84779.97678	2760.25679
0.17025	84721.89116	2759.25679
0.16976	84663.88286	2758.25679
0.16926	84605.95152	2757.25679
0.16876	84548.09680	2756.25679
0.16827	84490.31832	2755.25679
0.16778	84432.61575	2754.25679
0.16729	84374.98873	2753.25679
0.16680	84317.43692	2752.25679
0.16632	84259.95996	2751.25679
0.16583	84202.55751	2750.25679
0.16535	84145.22924	2749.25679
0.16487	84087.97480	2748.25679
0.16439	84030.79385	2747.25679
0.16391	83973.68606	2746.25679
0.16344	83916.65109	2745.25679
0.16296	83859.68862	2744.25679
0.16249	83802.79830	2743.25679
0.16202	83745.97982	2742.25679
0.16155	83689.23285	2741.25679
0.16108	83632.55706	2740.25679
0.16061	83575.95213	2739.25679
0.16015	83519.41774	2738.25679
0.15969	83462.95357	2737.25679
0.15923	83406.55931	2736.25679
0.15877	83350.23464	2735.25679
0.15831	83293.97925	2734.25679
0.15785	83237.79282	2733.25679
0.15739	83181.67505	2732.25679
0.15694	83125.62562	2731.25679
0.15649	83069.64425	2730.25679
0.15604	83013.73061	2729.25679
0.15559	82957.88440	2728.25679
0.15514	82902.10534	2727.25679
0.15469	82846.39311	2726.25679
0.15425	82790.74742	2725.25679
0.15381	82735.16798	2724.25679
0.15337	82679.65449	2723.25679
0.15293	82624.20666	2722.25679
0.15249	82568.82420	2721.25679
0.15205	82513.50682	2720.25679
0.15161	82458.25424	2719.25679
0.15118	82403.06616	2718.25679
0.15075	82347.94231	2717.25679
0.15031	82292.88241	2716.25679
0.14988	82237.88616	2715.25679
0.14946	82182.95331	2714.25679
0.14903	82128.08356	2713.25679
0.14860	82073.27664	2712.25679
0.14818	82018.53228	2711.25679
0.14776	81963.85020	2710.25679
0.14733	81909.23014	2709.25679
0.14691	81854.67183	2708.25679
0.14650	81800.17499	2707.25679
0.14608	81745.73936	2706.25679
0.14566	81691.36468	2705.25679
0.14525	81637.05069	2704.25679
0.14483	81582.79711	2703.25679
0.14442	81528.60370	2702.25679
0.14401	81474.47018	2701.25679
0.14360	81420.39632	2700.25679
0.14319	81366.38184	2699.25679
0.14279	81312.42649	2698.25679
0.14238	81258.53003	2697.25679
0.14198	81204.69220	2696.25679
0.14157	81150.91275	2695.25679
0.14117	81097.19143	2694.25679
0.14077	81043.52799	2693.25679
0.14037	80989.92219	2692.25679
0.13998	80936.37378	2691.25679
0.13958	80882.88252	2690.25679
0.13918	80829.44817	2689.25679
0.13879	80776.07049	2688.25679
0.13840	80722.74924	2687.25679
0.13801	80669.48417	2686.25679
0.13762	80616.27506	2685.25679
0.13723	80563.12167	2684.25679
0.13684	80510.02376	2683.25679
0.13645	80456.98111	2682.25679
0.13607	80403.99347	2681.25679
0.13569	80351.06063	2680.25679
0.13530	80298.18234	2679.25679
0.13492	80245.35840	2678.25679
0.13454	80192.58856	2677.25679
0.13416	80139.87260	2676.25679
0.13378	80087.21030	2675.25679
0.13341	80034.60144	2674.25679
0.13303	79982.04580	2673.25679
0.13266	79929.54315	2672.25679
0.13228	79877.09327	2671.25679
0.13191	79824.69596	2670.25679
0.13154	79772.35099	2669.25679
0.13117	79720.05814	2668.25679
0.13080	79667.81721	2667.25679
0.13044	79615.62798	2666.25679
0.13007	79563.49024	2665.25679
0.12970	79511.40377	2664.25679
0.12934	79459.36838	2663.25679
0.12898	79407.38384	2662.25679
0.12862	79355.44996	2661.25679
0.12826	79303.56652	2660.25679
0.12790	79251.73332	2659.25679
0.12754	79199.95017	2658.25679
0.12718	79148.21685	2657.25679
0.12682	79096.53316	2656.25679
0.12647	79044.89891	2655.25679
0.12611	78993.31389	2654.25679
0.12576	78941.77790	2653.25679
0.12541	78890.29075	2652.25679
0.12506	78838.85225	2651.25679
0.12471	78787.46219	2650.25679
0.12436	78736.12039	2649.25679
0.12401	78684.82664	2648.25679
0.12367	78633.58077	2647.25679
0.12332	78582.38256	2646.25679
0.12298	78531.23185	2645.25679
0.12263	78480.12843	2644.25679
0.12229	78429.07213	2643.25679
0.12195	78378.06275	2642.25679
0.12161	78327.10010	2641.25679
0.12127	78276.18401	2640.25679
0.12093	78225.31428	2639.25679
0.12059	78174.49074	2638.25679
0.12026	78123.71320	2637.25679
0.11992	78072.98149	2636.25679
0.11959	78022.29541	2635.25679
0.11925	77971.65480	2634.25679
0.11892	77921.05948	2633.25679
0.11859	77870.50926	2632.25679
0.11826	77820.00398	2631.25679
0.11793	77769.54345	2630.25679
0.11760	77719.12750	2629.25679
0.11727	77668.75596	2628.25679
0.11695	77618.42866	2627.25679
0.11662	77568.14542	2626.25679
0.11630	77517.90608	2625.25679
0.11597	77467.71045	2624.25679
0.11565	77417.55839	2623.25679
0.11533	77367.44971	2622.25679
0.11501	77317.38425	2621.25679
0.11469	77267.36184	2620.25679
0.11437	77217.38232	2619.25679
0.11405	77167.44552	2618.25679
0.11373	77117.55129	2617.25679
0.11342	77067.69945	2616.25679
0.11310	77017.88984	2615.25679
0.11279	76968.12231	2614.25679
0.11247	76918.39670	2613.25679
0.11216	76868.71283	2612.25679
0.11185	76819.07056	2611.25679
0.11154	76769.46973	2610.25679
0.11123	76719.91018	2609.25679
0.11092	76670.39176	2608.25679
0.11061	76620.91430	2607.25679
0.11030	76571.47766	2606.25679
0.11000	76522.08168	2605.25679
0.10969	76472.72621	2604.25679
0.10939	76423.41109	2603.25679
0.10908	76374.13618	2602.25679
0.10878	76324.90132	2601.25679
0.10848	76275.70637	2600.25679
0.10818	76226.55117	2599.25679
0.10788	76177.43558	2598.25679
0.10758	76128.35944	2597.25679
0.10728	76079.32262	2596.25679
0.10698	76030.32497	2595.25679
0.10668	75981.36634	2594.25679
0.10639	75932.44658	2593.25679
0.10609	75883.56556	2592.25679
0.10580	75834.72313	2591.25679
0.10550	75785.91915	2590.25679
0.10521	75737.15347	2589.25679
0.10492	75688.42596	2588.25679
0.10463	75639.73647	2587.25679
0.10433	75591.08487	2586.25679
0.10404	75542.47102	2585.25679
0.10376	75493.89478	2584.25679
0.10347	75445.35601	2583.25679
0.10318	75396.85458	2582.25679
0.10289	75348.39034	2581.25679
0.10261	75299.96317	2580.25679
0.10232	75251.57293	2579.25679
0.10204	75203.21949	2578.25679
0.10175	75154.90271	2577.25679
0.10147	75106.62246	2576.25679
0.10119	75058.37861	2575.25679
0.10091	75010.17103	2574.25679
0.10063	74961.99958	2573.25679
0.10035	74913.86414	2572.25679
0.10007	74865.76458	2571.25679
