Mole fraction of liquid	Heat per mole [J]	Temperature [K]
1.00000	1.39545E5	3235.04644
0.99997	1.39540E5	3234.95081
0.99455	1.39260E5	3233.95081
0.98918	1.38983E5	3232.95081
0.98384	1.38707E5	3231.95081
0.97854	1.38433E5	3230.95081
0.97329	1.38161E5	3229.95081
0.96807	1.37891E5	3228.95081
0.96289	1.37623E5	3227.95081
0.95775	1.37356E5	3226.95081
0.95265	1.37091E5	3225.95081
0.94758	1.36828E5	3224.95081
0.94255	1.36566E5	3223.95081
0.93756	1.36307E5	3222.95081
0.93261	1.36049E5	3221.95081
0.92769	1.35792E5	3220.95081
0.92281	1.35537E5	3219.95081
0.91796	1.35284E5	3218.95081
0.91315	1.35032E5	3217.95081
0.90837	1.34783E5	3216.95081
0.90363	1.34534E5	3215.95081
0.89892	1.34287E5	3214.95081
0.89425	1.34042E5	3213.95081
0.88960	1.33798E5	3212.95081
0.88500	1.33556E5	3211.95081
0.88042	1.33315E5	3210.95081
0.87588	1.33076E5	3209.95081
0.87137	1.32838E5	3208.95081
0.86689	1.32602E5	3207.95081
0.86245	1.32367E5	3206.95081
0.85803	1.32134E5	3205.95081
0.85365	1.31902E5	3204.95081
0.84930	1.31671E5	3203.95081
0.84498	1.31442E5	3202.95081
0.84069	1.31214E5	3201.95081
0.83642	1.30987E5	3200.95081
0.83219	1.30762E5	3199.95081
0.82799	1.30539E5	3198.95081
0.82382	1.30316E5	3197.95081
0.81968	1.30095E5	3196.95081
0.81556	1.29875E5	3195.95081
0.81147	1.29657E5	3194.95081
0.80742	1.29440E5	3193.95081
0.80339	1.29224E5	3192.95081
0.79938	1.29009E5	3191.95081
0.79541	1.28796E5	3190.95081
0.79146	1.28583E5	3189.95081
0.78754	1.28372E5	3188.95081
0.78365	1.28163E5	3187.95081
0.77978	1.27954E5	3186.95081
0.77594	1.27747E5	3185.95081
0.77212	1.27541E5	3184.95081
0.76833	1.27336E5	3183.95081
0.76457	1.27132E5	3182.95081
0.76083	1.26929E5	3181.95081
0.75712	1.26727E5	3180.95081
0.75343	1.26527E5	3179.95081
0.74976	1.26328E5	3178.95081
0.74613	1.26130E5	3177.95081
0.74251	1.25932E5	3176.95081
0.73892	1.25736E5	3175.95081
0.73535	1.25542E5	3174.95081
0.73181	1.25348E5	3173.95081
0.72829	1.25155E5	3172.95081
0.72479	1.24963E5	3171.95081
0.72132	1.24772E5	3170.95081
0.71787	1.24583E5	3169.95081
0.71444	1.24394E5	3168.95081
0.71104	1.24207E5	3167.95081
0.70765	1.24020E5	3166.95081
0.70429	1.23834E5	3165.95081
0.70095	1.23650E5	3164.95081
0.69764	1.23466E5	3163.95081
0.69434	1.23283E5	3162.95081
0.69107	1.23102E5	3161.95081
0.68781	1.22921E5	3160.95081
0.68458	1.22741E5	3159.95081
0.68137	1.22562E5	3158.95081
0.67818	1.22384E5	3157.95081
0.67501	1.22207E5	3156.95081
0.67186	1.22031E5	3155.95081
0.66873	1.21856E5	3154.95081
0.66562	1.21682E5	3153.95081
0.66253	1.21509E5	3152.95081
0.65946	1.21336E5	3151.95081
0.65641	1.21164E5	3150.95081
0.65338	1.20994E5	3149.95081
0.65037	1.20824E5	3148.95081
0.64737	1.20655E5	3147.95081
0.64440	1.20487E5	3146.95081
0.64144	1.20319E5	3145.95081
0.63851	1.20153E5	3144.95081
0.63559	1.19987E5	3143.95081
0.63269	1.19822E5	3142.95081
0.62981	1.19658E5	3141.95081
0.62694	1.19495E5	3140.95081
0.62410	1.19333E5	3139.95081
0.62127	1.19171E5	3138.95081
0.61846	1.19010E5	3137.95081
0.61566	1.18850E5	3136.95081
0.61289	1.18691E5	3135.95081
0.61013	1.18532E5	3134.95081
0.60738	1.18375E5	3133.95081
0.60466	1.18218E5	3132.95081
0.60195	1.18061E5	3131.95081
0.59926	1.17906E5	3130.95081
0.59658	1.17751E5	3129.95081
0.59392	1.17597E5	3128.95081
0.59128	1.17444E5	3127.95081
0.58865	1.17291E5	3126.95081
0.58604	1.17139E5	3125.95081
0.58344	1.16988E5	3124.95081
0.58086	1.16837E5	3123.95081
0.57830	1.16688E5	3122.95081
0.57575	1.16539E5	3121.95081
0.57322	1.16390E5	3120.95081
0.57070	1.16242E5	3119.95081
0.56820	1.16095E5	3118.95081
0.56571	1.15949E5	3117.95081
0.56323	1.15803E5	3116.95081
0.56078	1.15658E5	3115.95081
0.55833	1.15514E5	3114.95081
0.55590	1.15370E5	3113.95081
0.55349	1.15227E5	3112.95081
0.55109	1.15085E5	3111.95081
0.54870	1.14943E5	3110.95081
0.54633	1.14802E5	3109.95081
0.54397	1.14661E5	3108.95081
0.54162	1.14521E5	3107.95081
0.53929	1.14382E5	3106.95081
0.53698	1.14243E5	3105.95081
0.53467	1.14105E5	3104.95081
0.53238	1.13967E5	3103.95081
0.53010	1.13830E5	3102.95081
0.52784	1.13694E5	3101.95081
0.52559	1.13558E5	3100.95081
0.52335	1.13423E5	3099.95081
0.52113	1.13288E5	3098.95081
0.51892	1.13154E5	3097.95081
0.51672	1.13021E5	3096.95081
0.51453	1.12888E5	3095.95081
0.51236	1.12756E5	3094.95081
0.51020	1.12624E5	3093.95081
0.50805	1.12493E5	3092.95081
0.50591	1.12362E5	3091.95081
0.50379	1.12232E5	3090.95081
0.50167	1.12102E5	3089.95081
0.49957	1.11973E5	3088.95081
0.49748	1.11844E5	3087.95081
0.49541	1.11716E5	3086.95081
0.49334	1.11589E5	3085.95081
0.49129	1.11462E5	3084.95081
0.48925	1.11335E5	3083.95081
0.48722	1.11209E5	3082.95081
0.48520	1.11084E5	3081.95081
0.48319	1.10959E5	3080.95081
0.48120	1.10835E5	3079.95081
0.47921	1.10711E5	3078.95081
0.47724	1.10587E5	3077.95081
0.47527	1.10464E5	3076.95081
0.47332	1.10342E5	3075.95081
0.47138	1.10220E5	3074.95081
0.46945	1.10098E5	3073.95081
0.46753	1.09977E5	3072.95081
0.46562	1.09856E5	3071.95081
0.46372	1.09736E5	3070.95081
0.46184	1.09617E5	3069.95081
0.45996	1.09497E5	3068.95081
0.45809	1.09379E5	3067.95081
0.45623	1.09260E5	3066.95081
0.45439	1.09143E5	3065.95081
0.45255	1.09025E5	3064.95081
0.45072	1.08908E5	3063.95081
0.44891	1.08792E5	3062.95081
0.44710	1.08676E5	3061.95081
0.44530	1.08560E5	3060.95081
0.44351	1.08445E5	3059.95081
0.44174	1.08330E5	3058.95081
0.43997	1.08216E5	3057.95081
0.43821	1.08102E5	3056.95081
0.43646	1.07988E5	3055.95081
0.43472	1.07875E5	3054.95081
0.43299	1.07762E5	3053.95081
0.43127	1.07650E5	3052.95081
0.42956	1.07538E5	3051.95081
0.42785	1.07427E5	3050.95081
0.42616	1.07316E5	3049.95081
0.42448	1.07205E5	3048.95081
0.42280	1.07095E5	3047.95081
0.42113	1.06985E5	3046.95081
0.41948	1.06875E5	3045.95081
0.41783	1.06766E5	3044.95081
0.41619	1.06657E5	3043.95081
0.41455	1.06549E5	3042.95081
0.41293	1.06441E5	3041.95081
0.41132	1.06334E5	3040.95081
0.40971	1.06226E5	3039.95081
0.40811	1.06119E5	3038.95081
0.40652	1.06013E5	3037.95081
0.40494	1.05907E5	3036.95081
0.40337	1.05801E5	3035.95081
0.40180	1.05696E5	3034.95081
0.40025	1.05591E5	3033.95081
0.39870	1.05486E5	3032.95081
0.39716	1.05382E5	3031.95081
0.39562	1.05278E5	3030.95081
0.39410	1.05174E5	3029.95081
0.39258	1.05071E5	3028.95081
0.39107	1.04968E5	3027.95081
0.38957	1.04865E5	3026.95081
0.38808	1.04763E5	3025.95081
0.38659	1.04661E5	3024.95081
0.38512	1.04560E5	3023.95081
0.38364	1.04458E5	3022.95081
0.38218	1.04357E5	3021.95081
0.38073	1.04257E5	3020.95081
0.37928	1.04157E5	3019.95081
0.37784	1.04057E5	3018.95081
0.37640	1.03957E5	3017.95081
0.37498	1.03858E5	3016.95081
0.37356	1.03759E5	3015.95081
0.37215	1.03660E5	3014.95081
0.37074	1.03562E5	3013.95081
0.36934	1.03464E5	3012.95081
0.36795	1.03366E5	3011.95081
0.36657	1.03268E5	3010.95081
0.36519	1.03171E5	3009.95081
0.36382	1.03074E5	3008.95081
0.36246	1.02978E5	3007.95081
0.36110	1.02882E5	3006.95081
0.35975	1.02786E5	3005.95081
0.35841	1.02690E5	3004.95081
0.35707	1.02595E5	3003.95081
0.35574	1.02500E5	3002.95081
0.35442	1.02405E5	3001.95081
0.35310	1.02310E5	3000.95081
0.35179	1.02216E5	2999.95081
0.35049	1.02122E5	2998.95081
0.34919	1.02029E5	2997.95081
0.34790	1.01935E5	2996.95081
0.34662	1.01842E5	2995.95081
0.34534	1.01749E5	2994.95081
0.34407	1.01657E5	2993.95081
0.34280	1.01565E5	2992.95081
0.34154	1.01473E5	2991.95081
0.34029	1.01381E5	2990.95081
0.33904	1.01290E5	2989.95081
0.33780	1.01198E5	2988.95081
0.33657	1.01107E5	2987.95081
0.33534	1.01017E5	2986.95081
0.33411	1.00926E5	2985.95081
0.33290	1.00836E5	2984.95081
0.33168	1.00746E5	2983.95081
0.33048	1.00657E5	2982.95081
0.32928	1.00567E5	2981.95081
0.32808	1.00478E5	2980.95081
0.32690	1.00389E5	2979.95081
0.32571	1.00301E5	2978.95081
0.32454	1.00212E5	2977.95081
0.32336	1.00124E5	2976.95081
0.32220	1.00036E5	2975.95081
0.32104	99948.57728	2974.95081
0.31988	99861.16465	2973.95081
0.31873	99773.99109	2972.95081
0.31759	99687.05511	2971.95081
0.31645	99600.35520	2970.95081
0.31532	99513.88990	2969.95081
0.31419	99427.65771	2968.95081
0.31307	99341.65719	2967.95081
0.31195	99255.88689	2966.95081
0.31084	99170.34536	2965.95081
0.30973	99085.03119	2964.95081
0.30863	98999.94294	2963.95081
0.30753	98915.07923	2962.95081
0.30644	98830.43865	2961.95081
0.30536	98746.01982	2960.95081
0.30428	98661.82137	2959.95081
0.30320	98577.84194	2958.95081
0.30213	98494.08017	2957.95081
0.30106	98410.53472	2956.95081
0.30000	98327.20426	2955.95081
0.29894	98244.08747	2954.95081
0.29789	98161.18304	2953.95081
0.29685	98078.48967	2952.95081
0.29580	97996.00606	2951.95081
0.29477	97913.73093	2950.95081
0.29374	97831.66301	2949.95081
0.29271	97749.80104	2948.95081
0.29168	97668.14377	2947.95081
0.29067	97586.68994	2946.95081
0.28965	97505.43834	2945.95081
0.28864	97424.38772	2944.95081
0.28764	97343.53688	2943.95081
0.28664	97262.88461	2942.95081
0.28564	97182.42972	2941.95081
0.28465	97102.17100	2940.95081
0.28367	97022.10729	2939.95081
0.28269	96942.23741	2938.95081
0.28171	96862.56020	2937.95081
0.28074	96783.07450	2936.95081
0.27977	96703.77918	2935.95081
0.27880	96624.67309	2934.95081
0.27784	96545.75510	2933.95081
0.27689	96467.02410	2932.95081
0.27594	96388.47897	2931.95081
0.27499	96310.11861	2930.95081
0.27405	96231.94193	2929.95081
0.27311	96153.94783	2928.95081
0.27217	96076.13524	2927.95081
0.27124	95998.50309	2926.95081
0.27032	95921.05031	2925.95081
0.26939	95843.77584	2924.95081
0.26848	95766.67864	2923.95081
0.26756	95689.75767	2922.95081
0.26665	95613.01190	2921.95081
0.26575	95536.44029	2920.95081
0.26484	95460.04183	2919.95081
0.26395	95383.81552	2918.95081
0.26305	95307.76034	2917.95081
0.26216	95231.87530	2916.95081
0.26127	95156.15942	2915.95081
0.26039	95080.61170	2914.95081
0.25951	95005.23118	2913.95081
0.25864	94930.01689	2912.95081
0.25777	94854.96786	2911.95081
0.25690	94780.08315	2910.95081
0.25604	94705.36181	2909.95081
0.25518	94630.80289	2908.95081
0.25432	94556.40547	2907.95081
0.25347	94482.16861	2906.95081
0.25262	94408.09140	2905.95081
0.25178	94334.17292	2904.95081
0.25093	94260.41226	2903.95081
0.25010	94186.80853	2902.95081
0.24926	94113.36083	2901.95081
0.24843	94040.06828	2900.95081
0.24760	93966.92998	2899.95081
0.24678	93893.94507	2898.95081
0.24596	93821.11268	2897.95081
0.24515	93748.43194	2896.95081
0.24433	93675.90199	2895.95081
0.24352	93603.52200	2894.95081
0.24272	93531.29110	2893.95081
0.24191	93459.20846	2892.95081
0.24111	93387.27325	2891.95081
0.24032	93315.48465	2890.95081
0.23953	93243.84182	2889.95081
0.23874	93172.34395	2888.95081
0.23795	93100.99024	2887.95081
0.23717	93029.77988	2886.95081
0.23639	92958.71207	2885.95081
0.23561	92887.78602	2884.95081
0.23484	92817.00093	2883.95081
0.23407	92746.35603	2882.95081
0.23330	92675.85054	2881.95081
0.23254	92605.48369	2880.95081
0.23178	92535.25471	2879.95081
0.23102	92465.16285	2878.95081
0.23027	92395.20733	2877.95081
0.22952	92325.38743	2876.95081
0.22877	92255.70238	2875.95081
0.22803	92186.15145	2874.95081
0.22729	92116.73391	2873.95081
0.22655	92047.44902	2872.95081
0.22581	91978.29606	2871.95081
0.22508	91909.27431	2870.95081
0.22435	91840.38306	2869.95081
0.22363	91771.62158	2868.95081
0.22290	91702.98919	2867.95081
0.22218	91634.48517	2866.95081
0.22147	91566.10884	2865.95081
0.22075	91497.85949	2864.95081
0.22004	91429.73645	2863.95081
0.21933	91361.73903	2862.95081
0.21863	91293.86656	2861.95081
0.21792	91226.11835	2860.95081
0.21722	91158.49375	2859.95081
0.21653	91090.99210	2858.95081
0.21583	91023.61272	2857.95081
0.21514	90956.35497	2856.95081
0.21445	90889.21819	2855.95081
0.21377	90822.20175	2854.95081
0.21308	90755.30499	2853.95081
0.21240	90688.52728	2852.95081
0.21172	90621.86799	2851.95081
0.21105	90555.32649	2850.95081
0.21038	90488.90216	2849.95081
0.20971	90422.59436	2848.95081
0.20904	90356.40250	2847.95081
0.20838	90290.32595	2846.95081
0.20771	90224.36410	2845.95081
0.20705	90158.51636	2844.95081
0.20640	90092.78212	2843.95081
0.20574	90027.16079	2842.95081
0.20509	89961.65177	2841.95081
0.20444	89896.25447	2840.95081
0.20380	89830.96832	2839.95081
0.20316	89765.79273	2838.95081
0.20251	89700.72712	2837.95081
0.20188	89635.77091	2836.95081
0.20124	89570.92355	2835.95081
0.20061	89506.18447	2834.95081
0.19997	89441.55310	2833.95081
0.19935	89377.02888	2832.95081
0.19872	89312.61126	2831.95081
0.19810	89248.29970	2830.95081
0.19748	89184.09363	2829.95081
0.19686	89119.99253	2828.95081
0.19624	89055.99584	2827.95081
0.19563	88992.10303	2826.95081
0.19501	88928.31357	2825.95081
0.19441	88864.62693	2824.95081
0.19380	88801.04258	2823.95081
0.19319	88737.56000	2822.95081
0.19259	88674.17867	2821.95081
0.19199	88610.89808	2820.95081
0.19139	88547.71770	2819.95081
0.19080	88484.63703	2818.95081
0.19021	88421.65557	2817.95081
0.18961	88358.77281	2816.95081
0.18903	88295.98824	2815.95081
0.18844	88233.30139	2814.95081
0.18786	88170.71174	2813.95081
0.18727	88108.21881	2812.95081
0.18669	88045.82212	2811.95081
0.18612	87983.52117	2810.95081
0.18554	87921.31550	2809.95081
0.18497	87859.20461	2808.95081
0.18440	87797.18804	2807.95081
0.18383	87735.26531	2806.95081
0.18326	87673.43596	2805.95081
0.18270	87611.69951	2804.95081
0.18214	87550.05551	2803.95081
0.18158	87488.50349	2802.95081
0.18102	87427.04301	2801.95081
0.18046	87365.67359	2800.95081
0.17991	87304.39480	2799.95081
0.17936	87243.20618	2798.95081
0.17881	87182.10729	2797.95081
0.17826	87121.09768	2796.95081
0.17771	87060.17692	2795.95081
0.17717	86999.34456	2794.95081
0.17663	86938.60018	2793.95081
0.17609	86877.94333	2792.95081
0.17555	86817.37360	2791.95081
0.17501	86756.89055	2790.95081
0.17448	86696.49376	2789.95081
0.17395	86636.18282	2788.95081
0.17342	86575.95729	2787.95081
0.17289	86515.81676	2786.95081
0.17237	86455.76083	2785.95081
0.17184	86395.78907	2784.95081
0.17132	86335.90109	2783.95081
0.17080	86276.09647	2782.95081
0.17028	86216.37481	2781.95081
0.16976	86156.73571	2780.95081
0.16925	86097.17878	2779.95081
0.16874	86037.70361	2778.95081
0.16823	85978.30982	2777.95081
0.16772	85918.99700	2776.95081
0.16721	85859.76478	2775.95081
0.16671	85800.61277	2774.95081
0.16620	85741.54057	2773.95081
0.16570	85682.54782	2772.95081
0.16520	85623.63413	2771.95081
0.16470	85564.79913	2770.95081
0.16421	85506.04243	2769.95081
0.16371	85447.36367	2768.95081
0.16322	85388.76248	2767.95081
0.16273	85330.23849	2766.95081
0.16224	85271.79133	2765.95081
0.16175	85213.42064	2764.95081
0.16127	85155.12606	2763.95081
0.16078	85096.90723	2762.95081
0.16030	85038.76379	2761.95081
0.15982	84980.69539	2760.95081
0.15934	84922.70168	2759.95081
0.15887	84864.78230	2758.95081
0.15839	84806.93690	2757.95081
0.15792	84749.16515	2756.95081
0.15745	84691.46669	2755.95081
0.15697	84633.84119	2754.95081
0.15651	84576.28830	2753.95081
0.15604	84518.80768	2752.95081
0.15557	84461.39901	2751.95081
0.15511	84404.06194	2750.95081
0.15465	84346.79614	2749.95081
0.15419	84289.60129	2748.95081
0.15373	84232.47705	2747.95081
0.15327	84175.42310	2746.95081
0.15282	84118.43912	2745.95081
0.15236	84061.52477	2744.95081
0.15191	84004.67975	2743.95081
0.15146	83947.90374	2742.95081
0.15101	83891.19641	2741.95081
0.15056	83834.55745	2740.95081
0.15012	83777.98655	2739.95081
0.14967	83721.48340	2738.95081
0.14923	83665.04769	2737.95081
0.14879	83608.67911	2736.95081
0.14835	83552.37736	2735.95081
0.14791	83496.14213	2734.95081
0.14747	83439.97312	2733.95081
0.14703	83383.87003	2732.95081
0.14660	83327.83256	2731.95081
0.14617	83271.86042	2730.95081
0.14574	83215.95331	2729.95081
0.14531	83160.11093	2728.95081
0.14488	83104.33300	2727.95081
0.14445	83048.61922	2726.95081
0.14403	82992.96932	2725.95081
0.14360	82937.38299	2724.95081
0.14318	82881.85995	2723.95081
0.14276	82826.39993	2722.95081
0.14234	82771.00265	2721.95081
0.14192	82715.66781	2720.95081
0.14150	82660.39514	2719.95081
0.14109	82605.18437	2718.95081
0.14068	82550.03522	2717.95081
0.14026	82494.94742	2716.95081
0.13985	82439.92070	2715.95081
0.13944	82384.95478	2714.95081
0.13903	82330.04939	2713.95081
0.13863	82275.20428	2712.95081
0.13822	82220.41917	2711.95081
0.13782	82165.69380	2710.95081
0.13741	82111.02790	2709.95081
0.13701	82056.42122	2708.95081
0.13661	82001.87349	2707.95081
0.13621	81947.38447	2706.95081
0.13581	81892.95388	2705.95081
0.13542	81838.58148	2704.95081
0.13502	81784.26700	2703.95081
0.13463	81730.01021	2702.95081
0.13424	81675.81085	2701.95081
0.13385	81621.66866	2700.95081
0.13346	81567.58341	2699.95081
0.13307	81513.55483	2698.95081
0.13268	81459.58270	2697.95081
0.13229	81405.66676	2696.95081
0.13191	81351.80677	2695.95081
0.13153	81298.00250	2694.95081
0.13114	81244.25369	2693.95081
0.13076	81190.56011	2692.95081
0.13038	81136.92153	2691.95081
0.13000	81083.33771	2690.95081
0.12963	81029.80842	2689.95081
0.12925	80976.33341	2688.95081
0.12887	80922.91247	2687.95081
0.12850	80869.54535	2686.95081
0.12813	80816.23183	2685.95081
0.12776	80762.97169	2684.95081
0.12739	80709.76469	2683.95081
0.12702	80656.61061	2682.95081
0.12665	80603.50922	2681.95081
0.12628	80550.46031	2680.95081
0.12592	80497.46365	2679.95081
0.12555	80444.51901	2678.95081
0.12519	80391.62619	2677.95081
0.12483	80338.78496	2676.95081
0.12447	80285.99511	2675.95081
0.12411	80233.25641	2674.95081
0.12375	80180.56866	2673.95081
0.12339	80127.93165	2672.95081
0.12303	80075.34515	2671.95081
0.12268	80022.80896	2670.95081
0.12233	79970.32287	2669.95081
0.12197	79917.88668	2668.95081
0.12162	79865.50016	2667.95081
0.12127	79813.16312	2666.95081
0.12092	79760.87536	2665.95081
0.12057	79708.63666	2664.95081
0.12022	79656.44682	2663.95081
0.11988	79604.30565	2662.95081
0.11953	79552.21294	2661.95081
0.11919	79500.16849	2660.95081
0.11885	79448.17210	2659.95081
0.11850	79396.22358	2658.95081
0.11816	79344.32273	2657.95081
0.11782	79292.46936	2656.95081
0.11748	79240.66326	2655.95081
0.11714	79188.90425	2654.95081
0.11681	79137.19213	2653.95081
0.11647	79085.52672	2652.95081
0.11614	79033.90782	2651.95081
0.11580	78982.33524	2650.95081
0.11547	78930.80880	2649.95081
0.11514	78879.32831	2648.95081
0.11481	78827.89358	2647.95081
0.11448	78776.50442	2646.95081
0.11415	78725.16066	2645.95081
0.11382	78673.86211	2644.95081
0.11350	78622.60859	2643.95081
0.11317	78571.39991	2642.95081
0.11284	78520.23590	2641.95081
0.11252	78469.11638	2640.95081
0.11220	78418.04116	2639.95081
0.11188	78367.01008	2638.95081
0.11156	78316.02295	2637.95081
0.11124	78265.07960	2636.95081
0.11092	78214.17986	2635.95081
0.11060	78163.32355	2634.95081
0.11028	78112.51050	2633.95081
0.10997	78061.74053	2632.95081
0.10965	78011.01348	2631.95081
0.10934	77960.32918	2630.95081
0.10902	77909.68746	2629.95081
0.10871	77859.08814	2628.95081
0.10840	77808.53107	2627.95081
0.10809	77758.01607	2626.95081
0.10778	77707.54298	2625.95081
0.10747	77657.11164	2624.95081
0.10716	77606.72188	2623.95081
0.10685	77556.37354	2622.95081
0.10655	77506.06645	2621.95081
0.10624	77455.80046	2620.95081
0.10594	77405.57540	2619.95081
0.10564	77355.39113	2618.95081
0.10533	77305.24746	2617.95081
0.10503	77255.14426	2616.95081
0.10473	77205.08136	2615.95081
0.10443	77155.05860	2614.95081
0.10413	77105.07583	2613.95081
0.10383	77055.13290	2612.95081
0.10354	77005.22966	2611.95081
0.10324	76955.36594	2610.95081
0.10295	76905.54159	2609.95081
0.10265	76855.75647	2608.95081
0.10236	76806.01043	2607.95081
0.10206	76756.30331	2606.95081
0.10177	76706.63497	2605.95081
0.10148	76657.00525	2604.95081
0.10119	76607.41401	2603.95081
0.10090	76557.86111	2602.95081
0.10061	76508.34639	2601.95081
0.10032	76458.86971	2600.95081
0.10004	76409.43094	2599.95081
0.09975	76360.02991	2598.95081
0.09946	76310.66649	2597.95081
0.09918	76261.34054	2596.95081
0.09889	76212.05192	2595.95081
0.09861	76162.80048	2594.95081
0.09833	76113.58609	2593.95081
0.09805	76064.40860	2592.95081
0.09777	76015.26787	2591.95081
0.09749	75966.16378	2590.95081
0.09721	75917.09618	2589.95081
0.09693	75868.06493	2588.95081
0.09665	75819.06990	2587.95081
0.09637	75770.11095	2586.95081
0.09610	75721.18795	2585.95081
0.09582	75672.30076	2584.95081
0.09555	75623.44926	2583.95081
0.09527	75574.63330	2582.95081
0.09500	75525.85276	2581.95081
0.09473	75477.10751	2580.95081
0.09446	75428.39741	2579.95081
0.09419	75379.72234	2578.95081
0.09392	75331.08216	2577.95081
0.09365	75282.47675	2576.95081
