Mole fraction of liquid	Heat per mole [J]	Temperature [K]
1.00000	1.39935E5	3237.28661
0.99997	1.39930E5	3237.19098
0.99450	1.39648E5	3236.19098
0.98906	1.39368E5	3235.19098
0.98367	1.39090E5	3234.19098
0.97832	1.38814E5	3233.19098
0.97301	1.38539E5	3232.19098
0.96774	1.38267E5	3231.19098
0.96251	1.37996E5	3230.19098
0.95732	1.37727E5	3229.19098
0.95217	1.37460E5	3228.19098
0.94705	1.37195E5	3227.19098
0.94198	1.36931E5	3226.19098
0.93694	1.36669E5	3225.19098
0.93194	1.36409E5	3224.19098
0.92697	1.36150E5	3223.19098
0.92204	1.35893E5	3222.19098
0.91715	1.35638E5	3221.19098
0.91229	1.35385E5	3220.19098
0.90747	1.35133E5	3219.19098
0.90269	1.34882E5	3218.19098
0.89794	1.34634E5	3217.19098
0.89322	1.34386E5	3216.19098
0.88854	1.34141E5	3215.19098
0.88389	1.33897E5	3214.19098
0.87927	1.33654E5	3213.19098
0.87469	1.33413E5	3212.19098
0.87014	1.33173E5	3211.19098
0.86563	1.32935E5	3210.19098
0.86114	1.32699E5	3209.19098
0.85669	1.32464E5	3208.19098
0.85227	1.32230E5	3207.19098
0.84788	1.31998E5	3206.19098
0.84352	1.31767E5	3205.19098
0.83920	1.31537E5	3204.19098
0.83490	1.31309E5	3203.19098
0.83063	1.31083E5	3202.19098
0.82640	1.30857E5	3201.19098
0.82219	1.30633E5	3200.19098
0.81802	1.30411E5	3199.19098
0.81387	1.30190E5	3198.19098
0.80975	1.29970E5	3197.19098
0.80566	1.29751E5	3196.19098
0.80160	1.29534E5	3195.19098
0.79756	1.29318E5	3194.19098
0.79356	1.29103E5	3193.19098
0.78958	1.28889E5	3192.19098
0.78563	1.28677E5	3191.19098
0.78171	1.28466E5	3190.19098
0.77781	1.28256E5	3189.19098
0.77394	1.28047E5	3188.19098
0.77010	1.27840E5	3187.19098
0.76628	1.27633E5	3186.19098
0.76249	1.27428E5	3185.19098
0.75873	1.27224E5	3184.19098
0.75499	1.27022E5	3183.19098
0.75127	1.26820E5	3182.19098
0.74758	1.26620E5	3181.19098
0.74392	1.26420E5	3180.19098
0.74028	1.26222E5	3179.19098
0.73667	1.26025E5	3178.19098
0.73308	1.25829E5	3177.19098
0.72951	1.25634E5	3176.19098
0.72597	1.25440E5	3175.19098
0.72245	1.25247E5	3174.19098
0.71895	1.25055E5	3173.19098
0.71548	1.24865E5	3172.19098
0.71203	1.24675E5	3171.19098
0.70860	1.24486E5	3170.19098
0.70520	1.24299E5	3169.19098
0.70181	1.24112E5	3168.19098
0.69846	1.23927E5	3167.19098
0.69512	1.23742E5	3166.19098
0.69180	1.23558E5	3165.19098
0.68851	1.23376E5	3164.19098
0.68524	1.23194E5	3163.19098
0.68198	1.23013E5	3162.19098
0.67875	1.22834E5	3161.19098
0.67555	1.22655E5	3160.19098
0.67236	1.22477E5	3159.19098
0.66919	1.22300E5	3158.19098
0.66604	1.22124E5	3157.19098
0.66291	1.21949E5	3156.19098
0.65981	1.21775E5	3155.19098
0.65672	1.21601E5	3154.19098
0.65365	1.21429E5	3153.19098
0.65061	1.21257E5	3152.19098
0.64758	1.21087E5	3151.19098
0.64457	1.20917E5	3150.19098
0.64158	1.20748E5	3149.19098
0.63861	1.20580E5	3148.19098
0.63566	1.20412E5	3147.19098
0.63272	1.20246E5	3146.19098
0.62981	1.20080E5	3145.19098
0.62691	1.19916E5	3144.19098
0.62403	1.19752E5	3143.19098
0.62117	1.19589E5	3142.19098
0.61833	1.19426E5	3141.19098
0.61551	1.19265E5	3140.19098
0.61270	1.19104E5	3139.19098
0.60991	1.18944E5	3138.19098
0.60714	1.18785E5	3137.19098
0.60438	1.18626E5	3136.19098
0.60164	1.18469E5	3135.19098
0.59892	1.18312E5	3134.19098
0.59622	1.18156E5	3133.19098
0.59353	1.18000E5	3132.19098
0.59086	1.17846E5	3131.19098
0.58821	1.17692E5	3130.19098
0.58557	1.17539E5	3129.19098
0.58295	1.17386E5	3128.19098
0.58034	1.17234E5	3127.19098
0.57775	1.17083E5	3126.19098
0.57517	1.16933E5	3125.19098
0.57262	1.16783E5	3124.19098
0.57007	1.16634E5	3123.19098
0.56754	1.16486E5	3122.19098
0.56503	1.16338E5	3121.19098
0.56253	1.16191E5	3120.19098
0.56005	1.16045E5	3119.19098
0.55758	1.15900E5	3118.19098
0.55513	1.15755E5	3117.19098
0.55269	1.15611E5	3116.19098
0.55027	1.15467E5	3115.19098
0.54786	1.15324E5	3114.19098
0.54546	1.15182E5	3113.19098
0.54308	1.15040E5	3112.19098
0.54072	1.14899E5	3111.19098
0.53837	1.14758E5	3110.19098
0.53603	1.14619E5	3109.19098
0.53370	1.14479E5	3108.19098
0.53139	1.14341E5	3107.19098
0.52909	1.14203E5	3106.19098
0.52681	1.14065E5	3105.19098
0.52454	1.13929E5	3104.19098
0.52228	1.13792E5	3103.19098
0.52004	1.13657E5	3102.19098
0.51781	1.13522E5	3101.19098
0.51559	1.13387E5	3100.19098
0.51338	1.13253E5	3099.19098
0.51119	1.13120E5	3098.19098
0.50901	1.12987E5	3097.19098
0.50684	1.12855E5	3096.19098
0.50469	1.12724E5	3095.19098
0.50255	1.12592E5	3094.19098
0.50042	1.12462E5	3093.19098
0.49830	1.12332E5	3092.19098
0.49619	1.12202E5	3091.19098
0.49410	1.12074E5	3090.19098
0.49202	1.11945E5	3089.19098
0.48995	1.11817E5	3088.19098
0.48789	1.11690E5	3087.19098
0.48584	1.11563E5	3086.19098
0.48381	1.11437E5	3085.19098
0.48179	1.11311E5	3084.19098
0.47977	1.11186E5	3083.19098
0.47777	1.11061E5	3082.19098
0.47579	1.10937E5	3081.19098
0.47381	1.10813E5	3080.19098
0.47184	1.10690E5	3079.19098
0.46989	1.10567E5	3078.19098
0.46794	1.10444E5	3077.19098
0.46601	1.10323E5	3076.19098
0.46408	1.10201E5	3075.19098
0.46217	1.10080E5	3074.19098
0.46027	1.09960E5	3073.19098
0.45838	1.09840E5	3072.19098
0.45650	1.09720E5	3071.19098
0.45463	1.09601E5	3070.19098
0.45277	1.09483E5	3069.19098
0.45092	1.09365E5	3068.19098
0.44908	1.09247E5	3067.19098
0.44725	1.09130E5	3066.19098
0.44543	1.09013E5	3065.19098
0.44362	1.08897E5	3064.19098
0.44182	1.08781E5	3063.19098
0.44003	1.08665E5	3062.19098
0.43825	1.08550E5	3061.19098
0.43648	1.08436E5	3060.19098
0.43472	1.08321E5	3059.19098
0.43297	1.08208E5	3058.19098
0.43123	1.08094E5	3057.19098
0.42950	1.07981E5	3056.19098
0.42777	1.07869E5	3055.19098
0.42606	1.07757E5	3054.19098
0.42435	1.07645E5	3053.19098
0.42266	1.07534E5	3052.19098
0.42097	1.07423E5	3051.19098
0.41930	1.07312E5	3050.19098
0.41763	1.07202E5	3049.19098
0.41597	1.07092E5	3048.19098
0.41432	1.06983E5	3047.19098
0.41268	1.06874E5	3046.19098
0.41104	1.06766E5	3045.19098
0.40942	1.06657E5	3044.19098
0.40780	1.06550E5	3043.19098
0.40620	1.06442E5	3042.19098
0.40460	1.06335E5	3041.19098
0.40301	1.06228E5	3040.19098
0.40143	1.06122E5	3039.19098
0.39985	1.06016E5	3038.19098
0.39829	1.05910E5	3037.19098
0.39673	1.05805E5	3036.19098
0.39518	1.05700E5	3035.19098
0.39364	1.05596E5	3034.19098
0.39211	1.05492E5	3033.19098
0.39058	1.05388E5	3032.19098
0.38907	1.05284E5	3031.19098
0.38756	1.05181E5	3030.19098
0.38606	1.05079E5	3029.19098
0.38456	1.04976E5	3028.19098
0.38308	1.04874E5	3027.19098
0.38160	1.04772E5	3026.19098
0.38013	1.04671E5	3025.19098
0.37867	1.04570E5	3024.19098
0.37721	1.04469E5	3023.19098
0.37576	1.04369E5	3022.19098
0.37432	1.04268E5	3021.19098
0.37289	1.04169E5	3020.19098
0.37147	1.04069E5	3019.19098
0.37005	1.03970E5	3018.19098
0.36864	1.03871E5	3017.19098
0.36723	1.03773E5	3016.19098
0.36583	1.03674E5	3015.19098
0.36444	1.03577E5	3014.19098
0.36306	1.03479E5	3013.19098
0.36169	1.03382E5	3012.19098
0.36032	1.03285E5	3011.19098
0.35895	1.03188E5	3010.19098
0.35760	1.03092E5	3009.19098
0.35625	1.02996E5	3008.19098
0.35491	1.02900E5	3007.19098
0.35357	1.02804E5	3006.19098
0.35225	1.02709E5	3005.19098
0.35092	1.02614E5	3004.19098
0.34961	1.02520E5	3003.19098
0.34830	1.02425E5	3002.19098
0.34700	1.02331E5	3001.19098
0.34570	1.02237E5	3000.19098
0.34441	1.02144E5	2999.19098
0.34313	1.02051E5	2998.19098
0.34185	1.01958E5	2997.19098
0.34058	1.01865E5	2996.19098
0.33932	1.01773E5	2995.19098
0.33806	1.01681E5	2994.19098
0.33681	1.01589E5	2993.19098
0.33556	1.01497E5	2992.19098
0.33432	1.01406E5	2991.19098
0.33309	1.01315E5	2990.19098
0.33186	1.01224E5	2989.19098
0.33064	1.01133E5	2988.19098
0.32943	1.01043E5	2987.19098
0.32822	1.00953E5	2986.19098
0.32701	1.00863E5	2985.19098
0.32582	1.00774E5	2984.19098
0.32462	1.00685E5	2983.19098
0.32344	1.00596E5	2982.19098
0.32226	1.00507E5	2981.19098
0.32108	1.00418E5	2980.19098
0.31991	1.00330E5	2979.19098
0.31875	1.00242E5	2978.19098
0.31759	1.00154E5	2977.19098
0.31644	1.00067E5	2976.19098
0.31529	99979.47085	2975.19098
0.31415	99892.41962	2974.19098
0.31301	99805.60520	2973.19098
0.31188	99719.02608	2972.19098
0.31076	99632.68079	2971.19098
0.30964	99546.56784	2970.19098
0.30852	99460.68577	2969.19098
0.30741	99375.03314	2968.19098
0.30631	99289.60850	2967.19098
0.30521	99204.41042	2966.19098
0.30412	99119.43748	2965.19098
0.30303	99034.68829	2964.19098
0.30194	98950.16143	2963.19098
0.30086	98865.85553	2962.19098
0.29979	98781.76921	2961.19098
0.29872	98697.90111	2960.19098
0.29766	98614.24988	2959.19098
0.29660	98530.81416	2958.19098
0.29555	98447.59263	2957.19098
0.29450	98364.58396	2956.19098
0.29345	98281.78684	2955.19098
0.29242	98199.19997	2954.19098
0.29138	98116.82205	2953.19098
0.29035	98034.65181	2952.19098
0.28933	97952.68796	2951.19098
0.28831	97870.92925	2950.19098
0.28729	97789.37442	2949.19098
0.28628	97708.02222	2948.19098
0.28527	97626.87142	2947.19098
0.28427	97545.92080	2946.19098
0.28328	97465.16913	2945.19098
0.28228	97384.61522	2944.19098
0.28130	97304.25785	2943.19098
0.28031	97224.09584	2942.19098
0.27933	97144.12801	2941.19098
0.27836	97064.35319	2940.19098
0.27739	96984.77022	2939.19098
0.27642	96905.37793	2938.19098
0.27546	96826.17519	2937.19098
0.27451	96747.16086	2936.19098
0.27355	96668.33381	2935.19098
0.27261	96589.69291	2934.19098
0.27166	96511.23706	2933.19098
0.27072	96432.96514	2932.19098
0.26979	96354.87608	2931.19098
0.26886	96276.96877	2930.19098
0.26793	96199.24214	2929.19098
0.26700	96121.69511	2928.19098
0.26609	96044.32663	2927.19098
0.26517	95967.13563	2926.19098
0.26426	95890.12107	2925.19098
0.26335	95813.28190	2924.19098
0.26245	95736.61710	2923.19098
0.26155	95660.12564	2922.19098
0.26066	95583.80649	2921.19098
0.25977	95507.65866	2920.19098
0.25888	95431.68113	2919.19098
0.25800	95355.87291	2918.19098
0.25712	95280.23301	2917.19098
0.25624	95204.76045	2916.19098
0.25537	95129.45425	2915.19098
0.25450	95054.31345	2914.19098
0.25364	94979.33709	2913.19098
0.25278	94904.52421	2912.19098
0.25192	94829.87387	2911.19098
0.25107	94755.38512	2910.19098
0.25022	94681.05704	2909.19098
0.24938	94606.88869	2908.19098
0.24854	94532.87916	2907.19098
0.24770	94459.02753	2906.19098
0.24686	94385.33290	2905.19098
0.24603	94311.79437	2904.19098
0.24521	94238.41103	2903.19098
0.24438	94165.18202	2902.19098
0.24356	94092.10644	2901.19098
0.24275	94019.18341	2900.19098
0.24193	93946.41208	2899.19098
0.24112	93873.79158	2898.19098
0.24032	93801.32104	2897.19098
0.23952	93728.99963	2896.19098
0.23872	93656.82649	2895.19098
0.23792	93584.80080	2894.19098
0.23713	93512.92171	2893.19098
0.23634	93441.18839	2892.19098
0.23555	93369.60004	2891.19098
0.23477	93298.15583	2890.19098
0.23399	93226.85495	2889.19098
0.23322	93155.69660	2888.19098
0.23244	93084.67999	2887.19098
0.23168	93013.80431	2886.19098
0.23091	92943.06879	2885.19098
0.23015	92872.47264	2884.19098
0.22939	92802.01508	2883.19098
0.22863	92731.69534	2882.19098
0.22788	92661.51267	2881.19098
0.22713	92591.46629	2880.19098
0.22638	92521.55546	2879.19098
0.22564	92451.77942	2878.19098
0.22490	92382.13743	2877.19098
0.22416	92312.62875	2876.19098
0.22342	92243.25265	2875.19098
0.22269	92174.00839	2874.19098
0.22196	92104.89526	2873.19098
0.22124	92035.91253	2872.19098
0.22052	91967.05949	2871.19098
0.21980	91898.33543	2870.19098
0.21908	91829.73965	2869.19098
0.21837	91761.27144	2868.19098
0.21766	91692.93012	2867.19098
0.21695	91624.71498	2866.19098
0.21624	91556.62536	2865.19098
0.21554	91488.66055	2864.19098
0.21484	91420.81990	2863.19098
0.21415	91353.10272	2862.19098
0.21345	91285.50835	2861.19098
0.21276	91218.03613	2860.19098
0.21208	91150.68540	2859.19098
0.21139	91083.45550	2858.19098
0.21071	91016.34580	2857.19098
0.21003	90949.35563	2856.19098
0.20935	90882.48436	2855.19098
0.20868	90815.73136	2854.19098
0.20801	90749.09600	2853.19098
0.20734	90682.57763	2852.19098
0.20667	90616.17565	2851.19098
0.20601	90549.88943	2850.19098
0.20535	90483.71836	2849.19098
0.20469	90417.66183	2848.19098
0.20404	90351.71922	2847.19098
0.20338	90285.88995	2846.19098
0.20273	90220.17339	2845.19098
0.20209	90154.56897	2844.19098
0.20144	90089.07610	2843.19098
0.20080	90023.69417	2842.19098
0.20016	89958.42262	2841.19098
0.19952	89893.26086	2840.19098
0.19889	89828.20831	2839.19098
0.19825	89763.26441	2838.19098
0.19763	89698.42858	2837.19098
0.19700	89633.70026	2836.19098
0.19637	89569.07890	2835.19098
0.19575	89504.56393	2834.19098
0.19513	89440.15480	2833.19098
0.19451	89375.85096	2832.19098
0.19390	89311.65187	2831.19098
0.19329	89247.55698	2830.19098
0.19268	89183.56576	2829.19098
0.19207	89119.67766	2828.19098
0.19146	89055.89216	2827.19098
0.19086	88992.20873	2826.19098
0.19026	88928.62684	2825.19098
0.18966	88865.14597	2824.19098
0.18906	88801.76560	2823.19098
0.18847	88738.48522	2822.19098
0.18788	88675.30432	2821.19098
0.18729	88612.22239	2820.19098
0.18670	88549.23892	2819.19098
0.18612	88486.35341	2818.19098
0.18554	88423.56537	2817.19098
0.18496	88360.87429	2816.19098
0.18438	88298.27969	2815.19098
0.18380	88235.78107	2814.19098
0.18323	88173.37796	2813.19098
0.18266	88111.06986	2812.19098
0.18209	88048.85630	2811.19098
0.18152	87986.73681	2810.19098
0.18096	87924.71090	2809.19098
0.18039	87862.77811	2808.19098
0.17983	87800.93797	2807.19098
0.17927	87739.19001	2806.19098
0.17872	87677.53378	2805.19098
0.17816	87615.96881	2804.19098
0.17761	87554.49466	2803.19098
0.17706	87493.11086	2802.19098
0.17651	87431.81696	2801.19098
0.17597	87370.61253	2800.19098
0.17542	87309.49711	2799.19098
0.17488	87248.47026	2798.19098
0.17434	87187.53155	2797.19098
0.17380	87126.68054	2796.19098
0.17327	87065.91679	2795.19098
0.17273	87005.23988	2794.19098
0.17220	86944.64937	2793.19098
0.17167	86884.14484	2792.19098
0.17114	86823.72588	2791.19098
0.17062	86763.39205	2790.19098
0.17009	86703.14294	2789.19098
0.16957	86642.97814	2788.19098
0.16905	86582.89724	2787.19098
0.16853	86522.89982	2786.19098
0.16802	86462.98547	2785.19098
0.16750	86403.15381	2784.19098
0.16699	86343.40441	2783.19098
0.16648	86283.73689	2782.19098
0.16597	86224.15084	2781.19098
0.16546	86164.64587	2780.19098
0.16496	86105.22159	2779.19098
0.16446	86045.87761	2778.19098
0.16395	85986.61354	2777.19098
0.16345	85927.42899	2776.19098
0.16296	85868.32359	2775.19098
0.16246	85809.29695	2774.19098
0.16197	85750.34870	2773.19098
0.16147	85691.47846	2772.19098
0.16098	85632.68586	2771.19098
0.16050	85573.97052	2770.19098
0.16001	85515.33208	2769.19098
0.15952	85456.77016	2768.19098
0.15904	85398.28442	2767.19098
0.15856	85339.87448	2766.19098
0.15808	85281.53998	2765.19098
0.15760	85223.28057	2764.19098
0.15712	85165.09589	2763.19098
0.15665	85106.98558	2762.19098
0.15617	85048.94931	2761.19098
0.15570	84990.98671	2760.19098
0.15523	84933.09744	2759.19098
0.15477	84875.28115	2758.19098
0.15430	84817.53751	2757.19098
0.15383	84759.86617	2756.19098
0.15337	84702.26679	2755.19098
0.15291	84644.73904	2754.19098
0.15245	84587.28258	2753.19098
0.15199	84529.89708	2752.19098
0.15153	84472.58221	2751.19098
0.15108	84415.33764	2750.19098
0.15063	84358.16304	2749.19098
0.15017	84301.05809	2748.19098
0.14972	84244.02246	2747.19098
0.14927	84187.05584	2746.19098
0.14883	84130.15790	2745.19098
0.14838	84073.32833	2744.19098
0.14794	84016.56681	2743.19098
0.14749	83959.87304	2742.19098
0.14705	83903.24669	2741.19098
0.14661	83846.68745	2740.19098
0.14618	83790.19503	2739.19098
0.14574	83733.76912	2738.19098
0.14531	83677.40940	2737.19098
0.14487	83621.11558	2736.19098
0.14444	83564.88736	2735.19098
0.14401	83508.72444	2734.19098
0.14358	83452.62651	2733.19098
0.14315	83396.59330	2732.19098
0.14273	83340.62449	2731.19098
0.14230	83284.71980	2730.19098
0.14188	83228.87895	2729.19098
0.14146	83173.10163	2728.19098
0.14104	83117.38757	2727.19098
0.14062	83061.73648	2726.19098
0.14020	83006.14807	2725.19098
0.13979	82950.62207	2724.19098
0.13937	82895.15819	2723.19098
0.13896	82839.75616	2722.19098
0.13855	82784.41569	2721.19098
0.13814	82729.13652	2720.19098
0.13773	82673.91836	2719.19098
0.13732	82618.76095	2718.19098
0.13691	82563.66402	2717.19098
0.13651	82508.62729	2716.19098
0.13610	82453.65050	2715.19098
0.13570	82398.73339	2714.19098
0.13530	82343.87568	2713.19098
0.13490	82289.07712	2712.19098
0.13450	82234.33745	2711.19098
0.13411	82179.65639	2710.19098
0.13371	82125.03371	2709.19098
0.13332	82070.46913	2708.19098
0.13292	82015.96240	2707.19098
0.13253	81961.51328	2706.19098
0.13214	81907.12150	2705.19098
0.13175	81852.78681	2704.19098
0.13137	81798.50898	2703.19098
0.13098	81744.28773	2702.19098
0.13059	81690.12284	2701.19098
0.13021	81636.01406	2700.19098
0.12983	81581.96113	2699.19098
0.12945	81527.96383	2698.19098
0.12907	81474.02190	2697.19098
0.12869	81420.13510	2696.19098
0.12831	81366.30321	2695.19098
0.12793	81312.52597	2694.19098
0.12756	81258.80316	2693.19098
0.12719	81205.13454	2692.19098
0.12681	81151.51988	2691.19098
0.12644	81097.95894	2690.19098
0.12607	81044.45150	2689.19098
0.12570	80990.99732	2688.19098
0.12533	80937.59617	2687.19098
0.12497	80884.24784	2686.19098
0.12460	80830.95209	2685.19098
0.12424	80777.70870	2684.19098
0.12387	80724.51745	2683.19098
0.12351	80671.37811	2682.19098
0.12315	80618.29047	2681.19098
0.12279	80565.25430	2680.19098
0.12243	80512.26938	2679.19098
0.12208	80459.33551	2678.19098
0.12172	80406.45246	2677.19098
0.12136	80353.62002	2676.19098
0.12101	80300.83798	2675.19098
0.12066	80248.10612	2674.19098
0.12031	80195.42423	2673.19098
0.11995	80142.79210	2672.19098
0.11960	80090.20953	2671.19098
0.11926	80037.67631	2670.19098
0.11891	79985.19223	2669.19098
0.11856	79932.75708	2668.19098
0.11822	79880.37066	2667.19098
0.11787	79828.03277	2666.19098
0.11753	79775.74321	2665.19098
0.11719	79723.50177	2664.19098
0.11685	79671.30825	2663.19098
0.11651	79619.16246	2662.19098
0.11617	79567.06421	2661.19098
0.11583	79515.01328	2660.19098
0.11549	79463.00949	2659.19098
0.11516	79411.05264	2658.19098
0.11482	79359.14255	2657.19098
0.11449	79307.27901	2656.19098
0.11416	79255.46183	2655.19098
0.11383	79203.69084	2654.19098
0.11350	79151.96583	2653.19098
0.11317	79100.28661	2652.19098
0.11284	79048.65301	2651.19098
0.11251	78997.06484	2650.19098
0.11218	78945.52190	2649.19098
0.11186	78894.02402	2648.19098
0.11154	78842.57101	2647.19098
0.11121	78791.16270	2646.19098
0.11089	78739.79889	2645.19098
0.11057	78688.47942	2644.19098
0.11025	78637.20409	2643.19098
0.10993	78585.97274	2642.19098
0.10961	78534.78518	2641.19098
0.10929	78483.64124	2640.19098
0.10897	78432.54074	2639.19098
0.10866	78381.48351	2638.19098
0.10834	78330.46937	2637.19098
0.10803	78279.49816	2636.19098
0.10772	78228.56970	2635.19098
0.10741	78177.68381	2634.19098
0.10709	78126.84034	2633.19098
0.10678	78076.03911	2632.19098
0.10648	78025.27995	2631.19098
0.10617	77974.56269	2630.19098
0.10586	77923.88717	2629.19098
0.10555	77873.25323	2628.19098
0.10525	77822.66070	2627.19098
0.10494	77772.10941	2626.19098
0.10464	77721.59920	2625.19098
0.10434	77671.12991	2624.19098
0.10404	77620.70138	2623.19098
0.10373	77570.31345	2622.19098
0.10343	77519.96596	2621.19098
0.10313	77469.65875	2620.19098
0.10284	77419.39167	2619.19098
0.10254	77369.16454	2618.19098
0.10224	77318.97723	2617.19098
0.10195	77268.82957	2616.19098
0.10165	77218.72141	2615.19098
0.10136	77168.65260	2614.19098
0.10106	77118.62298	2613.19098
0.10077	77068.63239	2612.19098
0.10048	77018.68070	2611.19098
0.10019	76968.76775	2610.19098
0.09990	76918.89338	2609.19098
0.09961	76869.05745	2608.19098
0.09932	76819.25982	2607.19098
0.09904	76769.50032	2606.19098
0.09875	76719.77883	2605.19098
0.09846	76670.09518	2604.19098
0.09818	76620.44924	2603.19098
0.09789	76570.84086	2602.19098
0.09761	76521.26990	2601.19098
0.09733	76471.73621	2600.19098
0.09705	76422.23965	2599.19098
0.09677	76372.78008	2598.19098
0.09649	76323.35737	2597.19098
0.09621	76273.97136	2596.19098
0.09593	76224.62192	2595.19098
0.09565	76175.30890	2594.19098
0.09537	76126.03219	2593.19098
0.09510	76076.79162	2592.19098
0.09482	76027.58708	2591.19098
0.09455	75978.41842	2590.19098
0.09427	75929.28550	2589.19098
0.09400	75880.18820	2588.19098
0.09373	75831.12638	2587.19098
0.09346	75782.09990	2586.19098
0.09318	75733.10863	2585.19098
0.09291	75684.15245	2584.19098
0.09264	75635.23121	2583.19098
0.09238	75586.34479	2582.19098
0.09211	75537.49306	2581.19098
0.09184	75488.67589	2580.19098
0.09157	75439.89316	2579.19098
