Mole fraction of liquid	Heat per mole [J]	Temperature [K]
1.00000	1.41629E5	3287.10458
0.99997	1.41623E5	3287.00895
0.99400	1.41313E5	3286.00895
0.98809	1.41005E5	3285.00895
0.98223	1.40700E5	3284.00895
0.97641	1.40397E5	3283.00895
0.97065	1.40096E5	3282.00895
0.96493	1.39797E5	3281.00895
0.95926	1.39501E5	3280.00895
0.95363	1.39206E5	3279.00895
0.94805	1.38914E5	3278.00895
0.94252	1.38624E5	3277.00895
0.93703	1.38336E5	3276.00895
0.93158	1.38051E5	3275.00895
0.92618	1.37767E5	3274.00895
0.92083	1.37485E5	3273.00895
0.91552	1.37206E5	3272.00895
0.91025	1.36928E5	3271.00895
0.90502	1.36652E5	3270.00895
0.89983	1.36379E5	3269.00895
0.89469	1.36107E5	3268.00895
0.88959	1.35837E5	3267.00895
0.88452	1.35569E5	3266.00895
0.87950	1.35303E5	3265.00895
0.87452	1.35039E5	3264.00895
0.86958	1.34777E5	3263.00895
0.86467	1.34516E5	3262.00895
0.85981	1.34257E5	3261.00895
0.85498	1.34000E5	3260.00895
0.85019	1.33745E5	3259.00895
0.84544	1.33492E5	3258.00895
0.84072	1.33240E5	3257.00895
0.83605	1.32990E5	3256.00895
0.83141	1.32741E5	3255.00895
0.82680	1.32495E5	3254.00895
0.82223	1.32250E5	3253.00895
0.81769	1.32006E5	3252.00895
0.81319	1.31765E5	3251.00895
0.80873	1.31525E5	3250.00895
0.80430	1.31286E5	3249.00895
0.79990	1.31049E5	3248.00895
0.79554	1.30814E5	3247.00895
0.79121	1.30580E5	3246.00895
0.78691	1.30347E5	3245.00895
0.78264	1.30117E5	3244.00895
0.77841	1.29887E5	3243.00895
0.77421	1.29659E5	3242.00895
0.77004	1.29433E5	3241.00895
0.76590	1.29208E5	3240.00895
0.76179	1.28984E5	3239.00895
0.75772	1.28762E5	3238.00895
0.75367	1.28542E5	3237.00895
0.74965	1.28322E5	3236.00895
0.74567	1.28104E5	3235.00895
0.74171	1.27888E5	3234.00895
0.73778	1.27673E5	3233.00895
0.73389	1.27459E5	3232.00895
0.73002	1.27246E5	3231.00895
0.72617	1.27035E5	3230.00895
0.72236	1.26825E5	3229.00895
0.71858	1.26617E5	3228.00895
0.71482	1.26409E5	3227.00895
0.71109	1.26203E5	3226.00895
0.70738	1.25998E5	3225.00895
0.70371	1.25795E5	3224.00895
0.70006	1.25593E5	3223.00895
0.69643	1.25391E5	3222.00895
0.69284	1.25192E5	3221.00895
0.68926	1.24993E5	3220.00895
0.68572	1.24795E5	3219.00895
0.68220	1.24599E5	3218.00895
0.67870	1.24404E5	3217.00895
0.67523	1.24210E5	3216.00895
0.67179	1.24017E5	3215.00895
0.66836	1.23825E5	3214.00895
0.66497	1.23634E5	3213.00895
0.66159	1.23445E5	3212.00895
0.65824	1.23256E5	3211.00895
0.65492	1.23069E5	3210.00895
0.65162	1.22882E5	3209.00895
0.64834	1.22697E5	3208.00895
0.64508	1.22513E5	3207.00895
0.64185	1.22330E5	3206.00895
0.63863	1.22148E5	3205.00895
0.63545	1.21967E5	3204.00895
0.63228	1.21787E5	3203.00895
0.62913	1.21608E5	3202.00895
0.62601	1.21429E5	3201.00895
0.62291	1.21252E5	3200.00895
0.61983	1.21076E5	3199.00895
0.61677	1.20901E5	3198.00895
0.61373	1.20727E5	3197.00895
0.61071	1.20554E5	3196.00895
0.60772	1.20382E5	3195.00895
0.60474	1.20210E5	3194.00895
0.60178	1.20040E5	3193.00895
0.59885	1.19870E5	3192.00895
0.59593	1.19702E5	3191.00895
0.59303	1.19534E5	3190.00895
0.59016	1.19367E5	3189.00895
0.58730	1.19202E5	3188.00895
0.58446	1.19037E5	3187.00895
0.58164	1.18873E5	3186.00895
0.57884	1.18709E5	3185.00895
0.57606	1.18547E5	3184.00895
0.57329	1.18385E5	3183.00895
0.57055	1.18225E5	3182.00895
0.56782	1.18065E5	3181.00895
0.56511	1.17906E5	3180.00895
0.56242	1.17748E5	3179.00895
0.55975	1.17590E5	3178.00895
0.55709	1.17434E5	3177.00895
0.55445	1.17278E5	3176.00895
0.55183	1.17123E5	3175.00895
0.54923	1.16968E5	3174.00895
0.54664	1.16815E5	3173.00895
0.54407	1.16662E5	3172.00895
0.54152	1.16510E5	3171.00895
0.53898	1.16359E5	3170.00895
0.53646	1.16209E5	3169.00895
0.53396	1.16059E5	3168.00895
0.53147	1.15910E5	3167.00895
0.52900	1.15762E5	3166.00895
0.52654	1.15615E5	3165.00895
0.52410	1.15468E5	3164.00895
0.52168	1.15322E5	3163.00895
0.51927	1.15177E5	3162.00895
0.51688	1.15032E5	3161.00895
0.51450	1.14888E5	3160.00895
0.51213	1.14745E5	3159.00895
0.50979	1.14602E5	3158.00895
0.50745	1.14460E5	3157.00895
0.50513	1.14319E5	3156.00895
0.50283	1.14179E5	3155.00895
0.50054	1.14039E5	3154.00895
0.49826	1.13899E5	3153.00895
0.49600	1.13761E5	3152.00895
0.49376	1.13623E5	3151.00895
0.49152	1.13486E5	3150.00895
0.48931	1.13349E5	3149.00895
0.48710	1.13213E5	3148.00895
0.48491	1.13078E5	3147.00895
0.48273	1.12943E5	3146.00895
0.48057	1.12809E5	3145.00895
0.47842	1.12675E5	3144.00895
0.47628	1.12542E5	3143.00895
0.47416	1.12410E5	3142.00895
0.47204	1.12278E5	3141.00895
0.46995	1.12147E5	3140.00895
0.46786	1.12016E5	3139.00895
0.46579	1.11886E5	3138.00895
0.46373	1.11757E5	3137.00895
0.46168	1.11628E5	3136.00895
0.45964	1.11500E5	3135.00895
0.45762	1.11372E5	3134.00895
0.45561	1.11245E5	3133.00895
0.45361	1.11118E5	3132.00895
0.45163	1.10992E5	3131.00895
0.44965	1.10867E5	3130.00895
0.44769	1.10742E5	3129.00895
0.44574	1.10617E5	3128.00895
0.44380	1.10493E5	3127.00895
0.44187	1.10370E5	3126.00895
0.43996	1.10247E5	3125.00895
0.43805	1.10125E5	3124.00895
0.43616	1.10003E5	3123.00895
0.43428	1.09881E5	3122.00895
0.43241	1.09761E5	3121.00895
0.43055	1.09640E5	3120.00895
0.42870	1.09520E5	3119.00895
0.42686	1.09401E5	3118.00895
0.42503	1.09282E5	3117.00895
0.42322	1.09164E5	3116.00895
0.42141	1.09046E5	3115.00895
0.41962	1.08929E5	3114.00895
0.41783	1.08812E5	3113.00895
0.41606	1.08695E5	3112.00895
0.41429	1.08579E5	3111.00895
0.41254	1.08464E5	3110.00895
0.41080	1.08349E5	3109.00895
0.40906	1.08234E5	3108.00895
0.40734	1.08120E5	3107.00895
0.40563	1.08006E5	3106.00895
0.40392	1.07893E5	3105.00895
0.40223	1.07780E5	3104.00895
0.40055	1.07668E5	3103.00895
0.39887	1.07556E5	3102.00895
0.39721	1.07444E5	3101.00895
0.39555	1.07333E5	3100.00895
0.39391	1.07223E5	3099.00895
0.39227	1.07112E5	3098.00895
0.39064	1.07003E5	3097.00895
0.38902	1.06893E5	3096.00895
0.38742	1.06784E5	3095.00895
0.38582	1.06676E5	3094.00895
0.38423	1.06568E5	3093.00895
0.38264	1.06460E5	3092.00895
0.38107	1.06352E5	3091.00895
0.37951	1.06245E5	3090.00895
0.37795	1.06139E5	3089.00895
0.37641	1.06033E5	3088.00895
0.37487	1.05927E5	3087.00895
0.37334	1.05822E5	3086.00895
0.37182	1.05717E5	3085.00895
0.37031	1.05612E5	3084.00895
0.36880	1.05508E5	3083.00895
0.36731	1.05404E5	3082.00895
0.36582	1.05300E5	3081.00895
0.36434	1.05197E5	3080.00895
0.36287	1.05095E5	3079.00895
0.36141	1.04992E5	3078.00895
0.35995	1.04890E5	3077.00895
0.35851	1.04789E5	3076.00895
0.35707	1.04687E5	3075.00895
0.35564	1.04586E5	3074.00895
0.35421	1.04486E5	3073.00895
0.35280	1.04385E5	3072.00895
0.35139	1.04285E5	3071.00895
0.34999	1.04186E5	3070.00895
0.34860	1.04087E5	3069.00895
0.34721	1.03988E5	3068.00895
0.34584	1.03889E5	3067.00895
0.34447	1.03791E5	3066.00895
0.34310	1.03693E5	3065.00895
0.34175	1.03596E5	3064.00895
0.34040	1.03498E5	3063.00895
0.33906	1.03402E5	3062.00895
0.33773	1.03305E5	3061.00895
0.33640	1.03209E5	3060.00895
0.33508	1.03113E5	3059.00895
0.33377	1.03017E5	3058.00895
0.33246	1.02922E5	3057.00895
0.33116	1.02827E5	3056.00895
0.32987	1.02732E5	3055.00895
0.32859	1.02638E5	3054.00895
0.32731	1.02544E5	3053.00895
0.32604	1.02450E5	3052.00895
0.32477	1.02357E5	3051.00895
0.32352	1.02263E5	3050.00895
0.32227	1.02171E5	3049.00895
0.32102	1.02078E5	3048.00895
0.31978	1.01986E5	3047.00895
0.31855	1.01894E5	3046.00895
0.31733	1.01802E5	3045.00895
0.31611	1.01711E5	3044.00895
0.31489	1.01619E5	3043.00895
0.31369	1.01529E5	3042.00895
0.31249	1.01438E5	3041.00895
0.31129	1.01348E5	3040.00895
0.31011	1.01258E5	3039.00895
0.30893	1.01168E5	3038.00895
0.30775	1.01079E5	3037.00895
0.30658	1.00989E5	3036.00895
0.30542	1.00900E5	3035.00895
0.30426	1.00812E5	3034.00895
0.30311	1.00723E5	3033.00895
0.30196	1.00635E5	3032.00895
0.30082	1.00547E5	3031.00895
0.29969	1.00460E5	3030.00895
0.29856	1.00372E5	3029.00895
0.29744	1.00285E5	3028.00895
0.29632	1.00199E5	3027.00895
0.29521	1.00112E5	3026.00895
0.29411	1.00026E5	3025.00895
0.29301	99939.58521	3024.00895
0.29191	99853.75961	3023.00895
0.29082	99768.18090	3022.00895
0.28974	99682.84744	3021.00895
0.28866	99597.75761	3020.00895
0.28759	99512.90979	3019.00895
0.28652	99428.30239	3018.00895
0.28546	99343.93382	3017.00895
0.28440	99259.80251	3016.00895
0.28335	99175.90691	3015.00895
0.28231	99092.24546	3014.00895
0.28126	99008.81664	3013.00895
0.28023	98925.61892	3012.00895
0.27920	98842.65080	3011.00895
0.27817	98759.91077	3010.00895
0.27715	98677.39735	3009.00895
0.27614	98595.10908	3008.00895
0.27513	98513.04448	3007.00895
0.27412	98431.20212	3006.00895
0.27312	98349.58056	3005.00895
0.27212	98268.17836	3004.00895
0.27113	98186.99412	3003.00895
0.27015	98106.02643	3002.00895
0.26917	98025.27391	3001.00895
0.26819	97944.73517	3000.00895
0.26722	97864.40884	2999.00895
0.26625	97784.29357	2998.00895
0.26529	97704.38800	2997.00895
0.26433	97624.69080	2996.00895
0.26338	97545.20065	2995.00895
0.26243	97465.91623	2994.00895
0.26149	97386.83623	2993.00895
0.26055	97307.95936	2992.00895
0.25961	97229.28433	2991.00895
0.25868	97150.80988	2990.00895
0.25776	97072.53473	2989.00895
0.25684	96994.45763	2988.00895
0.25592	96916.57734	2987.00895
0.25501	96838.89262	2986.00895
0.25410	96761.40224	2985.00895
0.25319	96684.10500	2984.00895
0.25229	96606.99968	2983.00895
0.25140	96530.08508	2982.00895
0.25051	96453.36003	2981.00895
0.24962	96376.82334	2980.00895
0.24874	96300.47385	2979.00895
0.24786	96224.31038	2978.00895
0.24699	96148.33180	2977.00895
0.24612	96072.53696	2976.00895
0.24525	95996.92473	2975.00895
0.24439	95921.49397	2974.00895
0.24353	95846.24359	2973.00895
0.24267	95771.17246	2972.00895
0.24182	95696.27950	2971.00895
0.24098	95621.56360	2970.00895
0.24014	95547.02370	2969.00895
0.23930	95472.65870	2968.00895
0.23846	95398.46756	2967.00895
0.23763	95324.44921	2966.00895
0.23681	95250.60260	2965.00895
0.23598	95176.92669	2964.00895
0.23516	95103.42044	2963.00895
0.23435	95030.08285	2962.00895
0.23354	94956.91287	2961.00895
0.23273	94883.90951	2960.00895
0.23192	94811.07176	2959.00895
0.23112	94738.39862	2958.00895
0.23033	94665.88912	2957.00895
0.22953	94593.54226	2956.00895
0.22874	94521.35708	2955.00895
0.22796	94449.33262	2954.00895
0.22717	94377.46790	2953.00895
0.22640	94305.76199	2952.00895
0.22562	94234.21394	2951.00895
0.22485	94162.82281	2950.00895
0.22408	94091.58767	2949.00895
0.22332	94020.50759	2948.00895
0.22255	93949.58168	2947.00895
0.22180	93878.80900	2946.00895
0.22104	93808.18867	2945.00895
0.22029	93737.71978	2944.00895
0.21954	93667.40145	2943.00895
0.21880	93597.23280	2942.00895
0.21806	93527.21294	2941.00895
0.21732	93457.34101	2940.00895
0.21658	93387.61615	2939.00895
0.21585	93318.03749	2938.00895
0.21512	93248.60420	2937.00895
0.21440	93179.31541	2936.00895
0.21368	93110.17030	2935.00895
0.21296	93041.16804	2934.00895
0.21224	92972.30779	2933.00895
0.21153	92903.58874	2932.00895
0.21082	92835.01008	2931.00895
0.21012	92766.57099	2930.00895
0.20941	92698.27067	2929.00895
0.20871	92630.10833	2928.00895
0.20802	92562.08318	2927.00895
0.20732	92494.19443	2926.00895
0.20663	92426.44130	2925.00895
0.20594	92358.82302	2924.00895
0.20526	92291.33882	2923.00895
0.20458	92223.98794	2922.00895
0.20390	92156.76962	2921.00895
0.20322	92089.68312	2920.00895
0.20255	92022.72767	2919.00895
0.20188	91955.90255	2918.00895
0.20121	91889.20702	2917.00895
0.20055	91822.64035	2916.00895
0.19989	91756.20180	2915.00895
0.19923	91689.89067	2914.00895
0.19857	91623.70624	2913.00895
0.19792	91557.64780	2912.00895
0.19727	91491.71464	2911.00895
0.19662	91425.90606	2910.00895
0.19598	91360.22137	2909.00895
0.19534	91294.65989	2908.00895
0.19470	91229.22092	2907.00895
0.19406	91163.90378	2906.00895
0.19343	91098.70780	2905.00895
0.19280	91033.63231	2904.00895
0.19217	90968.67664	2903.00895
0.19155	90903.84014	2902.00895
0.19092	90839.12214	2901.00895
0.19030	90774.52199	2900.00895
0.18968	90710.03905	2899.00895
0.18907	90645.67268	2898.00895
0.18846	90581.42223	2897.00895
0.18785	90517.28707	2896.00895
0.18724	90453.26657	2895.00895
0.18663	90389.36011	2894.00895
0.18603	90325.56706	2893.00895
0.18543	90261.88681	2892.00895
0.18484	90198.31875	2891.00895
0.18424	90134.86227	2890.00895
0.18365	90071.51677	2889.00895
0.18306	90008.28164	2888.00895
0.18247	89945.15629	2887.00895
0.18189	89882.14013	2886.00895
0.18130	89819.23257	2885.00895
0.18072	89756.43303	2884.00895
0.18015	89693.74093	2883.00895
0.17957	89631.15570	2882.00895
0.17900	89568.67675	2881.00895
0.17843	89506.30353	2880.00895
0.17786	89444.03548	2879.00895
0.17729	89381.87202	2878.00895
0.17673	89319.81261	2877.00895
0.17617	89257.85669	2876.00895
0.17561	89196.00372	2875.00895
0.17505	89134.25315	2874.00895
0.17450	89072.60444	2873.00895
0.17394	89011.05705	2872.00895
0.17339	88949.61045	2871.00895
0.17285	88888.26410	2870.00895
0.17230	88827.01749	2869.00895
0.17176	88765.87009	2868.00895
0.17122	88704.82137	2867.00895
0.17068	88643.87083	2866.00895
0.17014	88583.01795	2865.00895
0.16961	88522.26222	2864.00895
0.16907	88461.60314	2863.00895
0.16854	88401.04020	2862.00895
0.16802	88340.57291	2861.00895
0.16749	88280.20076	2860.00895
0.16696	88219.92328	2859.00895
0.16644	88159.73996	2858.00895
0.16592	88099.65032	2857.00895
0.16541	88039.65388	2856.00895
0.16489	87979.75016	2855.00895
0.16438	87919.93868	2854.00895
0.16386	87860.21898	2853.00895
0.16335	87800.59057	2852.00895
0.16285	87741.05300	2851.00895
0.16234	87681.60580	2850.00895
0.16184	87622.24851	2849.00895
0.16134	87562.98067	2848.00895
0.16084	87503.80183	2847.00895
0.16034	87444.71153	2846.00895
0.15984	87385.70933	2845.00895
0.15935	87326.79479	2844.00895
0.15886	87267.96745	2843.00895
0.15837	87209.22687	2842.00895
0.15788	87150.57263	2841.00895
0.15739	87092.00429	2840.00895
0.15691	87033.52141	2839.00895
0.15643	86975.12357	2838.00895
0.15595	86916.81033	2837.00895
0.15547	86858.58129	2836.00895
0.15499	86800.43602	2835.00895
0.15451	86742.37409	2834.00895
0.15404	86684.39510	2833.00895
0.15357	86626.49863	2832.00895
0.15310	86568.68427	2831.00895
0.15263	86510.95163	2830.00895
0.15217	86453.30028	2829.00895
0.15170	86395.72983	2828.00895
0.15124	86338.23988	2827.00895
0.15078	86280.83004	2826.00895
0.15032	86223.49991	2825.00895
0.14986	86166.24910	2824.00895
0.14941	86109.07722	2823.00895
0.14895	86051.98388	2822.00895
0.14850	85994.96870	2821.00895
0.14805	85938.03129	2820.00895
0.14760	85881.17129	2819.00895
0.14716	85824.38831	2818.00895
0.14671	85767.68197	2817.00895
0.14627	85711.05191	2816.00895
0.14583	85654.49776	2815.00895
0.14539	85598.01914	2814.00895
0.14495	85541.61570	2813.00895
0.14451	85485.28706	2812.00895
0.14408	85429.03288	2811.00895
0.14364	85372.85279	2810.00895
0.14321	85316.74643	2809.00895
0.14278	85260.71346	2808.00895
0.14235	85204.75351	2807.00895
0.14193	85148.86625	2806.00895
0.14150	85093.05133	2805.00895
0.14108	85037.30839	2804.00895
0.14065	84981.63710	2803.00895
0.14023	84926.03711	2802.00895
0.13981	84870.50810	2801.00895
0.13940	84815.04971	2800.00895
0.13898	84759.66163	2799.00895
0.13857	84704.34350	2798.00895
0.13815	84649.09502	2797.00895
0.13774	84593.91583	2796.00895
0.13733	84538.80563	2795.00895
0.13692	84483.76409	2794.00895
0.13652	84428.79088	2793.00895
0.13611	84373.88569	2792.00895
0.13571	84319.04819	2791.00895
0.13530	84264.27808	2790.00895
0.13490	84209.57503	2789.00895
0.13450	84154.93873	2788.00895
0.13410	84100.36888	2787.00895
0.13371	84045.86516	2786.00895
0.13331	83991.42727	2785.00895
0.13292	83937.05491	2784.00895
0.13253	83882.74777	2783.00895
0.13213	83828.50555	2782.00895
0.13174	83774.32795	2781.00895
0.13136	83720.21467	2780.00895
0.13097	83666.16543	2779.00895
0.13058	83612.17992	2778.00895
0.13020	83558.25785	2777.00895
0.12982	83504.39893	2776.00895
0.12944	83450.60288	2775.00895
0.12906	83396.86941	2774.00895
0.12868	83343.19824	2773.00895
0.12830	83289.58907	2772.00895
0.12792	83236.04163	2771.00895
0.12755	83182.55564	2770.00895
0.12718	83129.13082	2769.00895
0.12680	83075.76690	2768.00895
0.12643	83022.46360	2767.00895
0.12606	82969.22064	2766.00895
0.12570	82916.03776	2765.00895
0.12533	82862.91469	2764.00895
0.12496	82809.85115	2763.00895
0.12460	82756.84688	2762.00895
0.12424	82703.90162	2761.00895
0.12388	82651.01511	2760.00895
0.12352	82598.18707	2759.00895
0.12316	82545.41725	2758.00895
0.12280	82492.70540	2757.00895
0.12244	82440.05125	2756.00895
0.12209	82387.45455	2755.00895
0.12173	82334.91505	2754.00895
0.12138	82282.43248	2753.00895
0.12103	82230.00661	2752.00895
0.12068	82177.63718	2751.00895
0.12033	82125.32395	2750.00895
0.11998	82073.06666	2749.00895
0.11963	82020.86507	2748.00895
0.11929	81968.71894	2747.00895
0.11894	81916.62803	2746.00895
0.11860	81864.59208	2745.00895
0.11826	81812.61088	2744.00895
0.11792	81760.68417	2743.00895
0.11758	81708.81172	2742.00895
0.11724	81656.99330	2741.00895
0.11690	81605.22866	2740.00895
0.11657	81553.51759	2739.00895
0.11623	81501.85984	2738.00895
0.11590	81450.25519	2737.00895
0.11556	81398.70341	2736.00895
0.11523	81347.20427	2735.00895
0.11490	81295.75754	2734.00895
0.11457	81244.36300	2733.00895
0.11425	81193.02044	2732.00895
0.11392	81141.72961	2731.00895
0.11359	81090.49032	2730.00895
0.11327	81039.30233	2729.00895
0.11294	80988.16542	2728.00895
0.11262	80937.07939	2727.00895
0.11230	80886.04401	2726.00895
0.11198	80835.05907	2725.00895
0.11166	80784.12436	2724.00895
0.11134	80733.23966	2723.00895
0.11102	80682.40477	2722.00895
0.11071	80631.61947	2721.00895
0.11039	80580.88356	2720.00895
0.11008	80530.19683	2719.00895
0.10976	80479.55908	2718.00895
0.10945	80428.97009	2717.00895
0.10914	80378.42967	2716.00895
0.10883	80327.93761	2715.00895
0.10852	80277.49371	2714.00895
0.10821	80227.09778	2713.00895
0.10791	80176.74961	2712.00895
0.10760	80126.44900	2711.00895
0.10729	80076.19576	2710.00895
0.10699	80025.98969	2709.00895
0.10669	79975.83060	2708.00895
0.10639	79925.71830	2707.00895
0.10608	79875.65259	2706.00895
0.10578	79825.63328	2705.00895
0.10548	79775.66018	2704.00895
0.10519	79725.73311	2703.00895
0.10489	79675.85186	2702.00895
0.10459	79626.01627	2701.00895
0.10430	79576.22614	2700.00895
0.10400	79526.48128	2699.00895
0.10371	79476.78151	2698.00895
0.10342	79427.12666	2697.00895
0.10313	79377.51653	2696.00895
0.10284	79327.95096	2695.00895
0.10255	79278.42975	2694.00895
0.10226	79228.95273	2693.00895
0.10197	79179.51972	2692.00895
0.10168	79130.13054	2691.00895
0.10140	79080.78503	2690.00895
0.10111	79031.48300	2689.00895
0.10083	78982.22428	2688.00895
0.10055	78933.00870	2687.00895
0.10026	78883.83608	2686.00895
0.09998	78834.70626	2685.00895
0.09970	78785.61907	2684.00895
0.09942	78736.57433	2683.00895
0.09914	78687.57188	2682.00895
0.09887	78638.61155	2681.00895
0.09859	78589.69317	2680.00895
0.09831	78540.81659	2679.00895
0.09804	78491.98163	2678.00895
0.09776	78443.18813	2677.00895
0.09749	78394.43594	2676.00895
0.09722	78345.72488	2675.00895
0.09694	78297.05480	2674.00895
0.09667	78248.42553	2673.00895
0.09640	78199.83692	2672.00895
0.09613	78151.28882	2671.00895
0.09587	78102.78105	2670.00895
0.09560	78054.31348	2669.00895
0.09533	78005.88593	2668.00895
0.09507	77957.49826	2667.00895
0.09480	77909.15031	2666.00895
0.09454	77860.84193	2665.00895
0.09427	77812.57297	2664.00895
0.09401	77764.34327	2663.00895
0.09375	77716.15269	2662.00895
0.09349	77668.00108	2661.00895
0.09323	77619.88828	2660.00895
0.09297	77571.81415	2659.00895
0.09271	77523.77854	2658.00895
0.09245	77475.78131	2657.00895
0.09219	77427.82230	2656.00895
0.09194	77379.90139	2655.00895
0.09168	77332.01841	2654.00895
0.09143	77284.17322	2653.00895
0.09117	77236.36570	2652.00895
0.09092	77188.59568	2651.00895
0.09067	77140.86304	2650.00895
0.09042	77093.16763	2649.00895
0.09017	77045.50931	2648.00895
0.08992	76997.88794	2647.00895
0.08967	76950.30339	2646.00895
0.08942	76902.75551	2645.00895
0.08917	76855.24418	2644.00895
0.08892	76807.76925	2643.00895
0.08868	76760.33060	2642.00895
0.08843	76712.92808	2641.00895
0.08819	76665.56156	2640.00895
0.08794	76618.23091	2639.00895
0.08770	76570.93600	2638.00895
0.08746	76523.67670	2637.00895
0.08721	76476.45287	2636.00895
0.08697	76429.26439	2635.00895
0.08673	76382.11112	2634.00895
0.08649	76334.99294	2633.00895
0.08625	76287.90971	2632.00895
0.08601	76240.86132	2631.00895
0.08578	76193.84764	2630.00895
0.08554	76146.86853	2629.00895
