Mole fraction of liquid	Heat per mole [J]	Temperature [K]
1.00000	1.43248E5	3296.05547
0.99996	1.43242E5	3295.95984
0.99372	1.42919E5	3294.95984
0.98754	1.42599E5	3293.95984
0.98140	1.42282E5	3292.95984
0.97532	1.41967E5	3291.95984
0.96929	1.41654E5	3290.95984
0.96331	1.41344E5	3289.95984
0.95739	1.41036E5	3288.95984
0.95151	1.40730E5	3287.95984
0.94569	1.40427E5	3286.95984
0.93991	1.40126E5	3285.95984
0.93419	1.39828E5	3284.95984
0.92851	1.39531E5	3283.95984
0.92288	1.39237E5	3282.95984
0.91730	1.38945E5	3281.95984
0.91176	1.38656E5	3280.95984
0.90627	1.38368E5	3279.95984
0.90083	1.38083E5	3278.95984
0.89543	1.37799E5	3277.95984
0.89007	1.37518E5	3276.95984
0.88477	1.37239E5	3275.95984
0.87950	1.36962E5	3274.95984
0.87428	1.36687E5	3273.95984
0.86910	1.36414E5	3272.95984
0.86396	1.36142E5	3271.95984
0.85887	1.35873E5	3270.95984
0.85382	1.35606E5	3269.95984
0.84881	1.35341E5	3268.95984
0.84384	1.35077E5	3267.95984
0.83891	1.34816E5	3266.95984
0.83402	1.34556E5	3265.95984
0.82917	1.34298E5	3264.95984
0.82436	1.34042E5	3263.95984
0.81958	1.33788E5	3262.95984
0.81485	1.33535E5	3261.95984
0.81015	1.33285E5	3260.95984
0.80549	1.33036E5	3259.95984
0.80087	1.32788E5	3258.95984
0.79629	1.32543E5	3257.95984
0.79174	1.32299E5	3256.95984
0.78723	1.32056E5	3255.95984
0.78275	1.31816E5	3254.95984
0.77831	1.31577E5	3253.95984
0.77390	1.31340E5	3252.95984
0.76953	1.31104E5	3251.95984
0.76519	1.30870E5	3250.95984
0.76089	1.30637E5	3249.95984
0.75662	1.30406E5	3248.95984
0.75238	1.30176E5	3247.95984
0.74817	1.29948E5	3246.95984
0.74400	1.29722E5	3245.95984
0.73986	1.29497E5	3244.95984
0.73575	1.29273E5	3243.95984
0.73168	1.29051E5	3242.95984
0.72763	1.28830E5	3241.95984
0.72362	1.28611E5	3240.95984
0.71964	1.28393E5	3239.95984
0.71568	1.28177E5	3238.95984
0.71176	1.27962E5	3237.95984
0.70787	1.27748E5	3236.95984
0.70400	1.27536E5	3235.95984
0.70017	1.27325E5	3234.95984
0.69636	1.27115E5	3233.95984
0.69258	1.26907E5	3232.95984
0.68883	1.26700E5	3231.95984
0.68511	1.26494E5	3230.95984
0.68142	1.26290E5	3229.95984
0.67775	1.26087E5	3228.95984
0.67412	1.25885E5	3227.95984
0.67051	1.25684E5	3226.95984
0.66692	1.25484E5	3225.95984
0.66336	1.25286E5	3224.95984
0.65983	1.25089E5	3223.95984
0.65632	1.24893E5	3222.95984
0.65284	1.24698E5	3221.95984
0.64939	1.24505E5	3220.95984
0.64596	1.24313E5	3219.95984
0.64256	1.24121E5	3218.95984
0.63918	1.23931E5	3217.95984
0.63582	1.23742E5	3216.95984
0.63249	1.23554E5	3215.95984
0.62918	1.23368E5	3214.95984
0.62590	1.23182E5	3213.95984
0.62264	1.22998E5	3212.95984
0.61940	1.22814E5	3211.95984
0.61619	1.22632E5	3210.95984
0.61300	1.22450E5	3209.95984
0.60984	1.22270E5	3208.95984
0.60669	1.22091E5	3207.95984
0.60357	1.21912E5	3206.95984
0.60047	1.21735E5	3205.95984
0.59739	1.21559E5	3204.95984
0.59434	1.21383E5	3203.95984
0.59130	1.21209E5	3202.95984
0.58829	1.21036E5	3201.95984
0.58530	1.20864E5	3200.95984
0.58232	1.20692E5	3199.95984
0.57937	1.20522E5	3198.95984
0.57644	1.20352E5	3197.95984
0.57353	1.20184E5	3196.95984
0.57065	1.20016E5	3195.95984
0.56778	1.19849E5	3194.95984
0.56493	1.19683E5	3193.95984
0.56210	1.19518E5	3192.95984
0.55929	1.19354E5	3191.95984
0.55650	1.19191E5	3190.95984
0.55373	1.19029E5	3189.95984
0.55097	1.18868E5	3188.95984
0.54824	1.18707E5	3187.95984
0.54552	1.18547E5	3186.95984
0.54283	1.18388E5	3185.95984
0.54015	1.18230E5	3184.95984
0.53749	1.18073E5	3183.95984
0.53485	1.17917E5	3182.95984
0.53222	1.17761E5	3181.95984
0.52962	1.17606E5	3180.95984
0.52703	1.17452E5	3179.95984
0.52446	1.17299E5	3178.95984
0.52190	1.17147E5	3177.95984
0.51936	1.16995E5	3176.95984
0.51684	1.16844E5	3175.95984
0.51434	1.16694E5	3174.95984
0.51185	1.16545E5	3173.95984
0.50938	1.16396E5	3172.95984
0.50693	1.16248E5	3171.95984
0.50449	1.16101E5	3170.95984
0.50207	1.15955E5	3169.95984
0.49967	1.15809E5	3168.95984
0.49728	1.15664E5	3167.95984
0.49490	1.15520E5	3166.95984
0.49254	1.15377E5	3165.95984
0.49020	1.15234E5	3164.95984
0.48787	1.15092E5	3163.95984
0.48556	1.14950E5	3162.95984
0.48326	1.14809E5	3161.95984
0.48098	1.14669E5	3160.95984
0.47871	1.14530E5	3159.95984
0.47646	1.14391E5	3158.95984
0.47422	1.14253E5	3157.95984
0.47199	1.14116E5	3156.95984
0.46978	1.13979E5	3155.95984
0.46759	1.13843E5	3154.95984
0.46541	1.13707E5	3153.95984
0.46324	1.13572E5	3152.95984
0.46108	1.13438E5	3151.95984
0.45894	1.13304E5	3150.95984
0.45682	1.13171E5	3149.95984
0.45470	1.13039E5	3148.95984
0.45260	1.12907E5	3147.95984
0.45052	1.12776E5	3146.95984
0.44844	1.12645E5	3145.95984
0.44638	1.12515E5	3144.95984
0.44434	1.12386E5	3143.95984
0.44230	1.12257E5	3142.95984
0.44028	1.12129E5	3141.95984
0.43827	1.12001E5	3140.95984
0.43627	1.11874E5	3139.95984
0.43429	1.11747E5	3138.95984
0.43232	1.11621E5	3137.95984
0.43036	1.11496E5	3136.95984
0.42841	1.11371E5	3135.95984
0.42647	1.11246E5	3134.95984
0.42455	1.11122E5	3133.95984
0.42264	1.10999E5	3132.95984
0.42074	1.10876E5	3131.95984
0.41885	1.10754E5	3130.95984
0.41697	1.10632E5	3129.95984
0.41511	1.10511E5	3128.95984
0.41325	1.10390E5	3127.95984
0.41141	1.10270E5	3126.95984
0.40958	1.10150E5	3125.95984
0.40776	1.10031E5	3124.95984
0.40595	1.09913E5	3123.95984
0.40415	1.09794E5	3122.95984
0.40236	1.09677E5	3121.95984
0.40059	1.09559E5	3120.95984
0.39882	1.09443E5	3119.95984
0.39707	1.09326E5	3118.95984
0.39532	1.09211E5	3117.95984
0.39359	1.09095E5	3116.95984
0.39186	1.08980E5	3115.95984
0.39015	1.08866E5	3114.95984
0.38844	1.08752E5	3113.95984
0.38675	1.08638E5	3112.95984
0.38507	1.08525E5	3111.95984
0.38339	1.08413E5	3110.95984
0.38173	1.08301E5	3109.95984
0.38008	1.08189E5	3108.95984
0.37843	1.08078E5	3107.95984
0.37680	1.07967E5	3106.95984
0.37517	1.07856E5	3105.95984
0.37356	1.07746E5	3104.95984
0.37195	1.07637E5	3103.95984
0.37036	1.07528E5	3102.95984
0.36877	1.07419E5	3101.95984
0.36719	1.07311E5	3100.95984
0.36562	1.07203E5	3099.95984
0.36406	1.07095E5	3098.95984
0.36251	1.06988E5	3097.95984
0.36097	1.06881E5	3096.95984
0.35944	1.06775E5	3095.95984
0.35791	1.06669E5	3094.95984
0.35640	1.06564E5	3093.95984
0.35489	1.06459E5	3092.95984
0.35339	1.06354E5	3091.95984
0.35190	1.06250E5	3090.95984
0.35042	1.06146E5	3089.95984
0.34895	1.06042E5	3088.95984
0.34749	1.05939E5	3087.95984
0.34603	1.05836E5	3086.95984
0.34458	1.05733E5	3085.95984
0.34314	1.05631E5	3084.95984
0.34171	1.05530E5	3083.95984
0.34029	1.05428E5	3082.95984
0.33888	1.05327E5	3081.95984
0.33747	1.05227E5	3080.95984
0.33607	1.05126E5	3079.95984
0.33468	1.05026E5	3078.95984
0.33329	1.04927E5	3077.95984
0.33192	1.04827E5	3076.95984
0.33055	1.04729E5	3075.95984
0.32919	1.04630E5	3074.95984
0.32784	1.04532E5	3073.95984
0.32649	1.04434E5	3072.95984
0.32515	1.04336E5	3071.95984
0.32382	1.04239E5	3070.95984
0.32250	1.04142E5	3069.95984
0.32118	1.04045E5	3068.95984
0.31988	1.03949E5	3067.95984
0.31857	1.03853E5	3066.95984
0.31728	1.03758E5	3065.95984
0.31599	1.03662E5	3064.95984
0.31471	1.03567E5	3063.95984
0.31344	1.03473E5	3062.95984
0.31217	1.03378E5	3061.95984
0.31091	1.03284E5	3060.95984
0.30966	1.03190E5	3059.95984
0.30842	1.03097E5	3058.95984
0.30718	1.03004E5	3057.95984
0.30594	1.02911E5	3056.95984
0.30472	1.02818E5	3055.95984
0.30350	1.02726E5	3054.95984
0.30229	1.02634E5	3053.95984
0.30108	1.02542E5	3052.95984
0.29988	1.02451E5	3051.95984
0.29869	1.02360E5	3050.95984
0.29750	1.02269E5	3049.95984
0.29632	1.02179E5	3048.95984
0.29515	1.02088E5	3047.95984
0.29398	1.01998E5	3046.95984
0.29282	1.01909E5	3045.95984
0.29166	1.01819E5	3044.95984
0.29051	1.01730E5	3043.95984
0.28937	1.01641E5	3042.95984
0.28823	1.01552E5	3041.95984
0.28710	1.01464E5	3040.95984
0.28598	1.01376E5	3039.95984
0.28486	1.01288E5	3038.95984
0.28374	1.01201E5	3037.95984
0.28263	1.01113E5	3036.95984
0.28153	1.01026E5	3035.95984
0.28044	1.00939E5	3034.95984
0.27935	1.00853E5	3033.95984
0.27826	1.00767E5	3032.95984
0.27718	1.00681E5	3031.95984
0.27611	1.00595E5	3030.95984
0.27504	1.00509E5	3029.95984
0.27398	1.00424E5	3028.95984
0.27292	1.00339E5	3027.95984
0.27187	1.00254E5	3026.95984
0.27082	1.00170E5	3025.95984
0.26978	1.00085E5	3024.95984
0.26875	1.00001E5	3023.95984
0.26772	99917.26238	3022.95984
0.26669	99833.63927	3021.95984
0.26567	99750.24880	3020.95984
0.26466	99667.08942	3019.95984
0.26365	99584.15957	3018.95984
0.26265	99501.45774	3017.95984
0.26165	99418.98238	3016.95984
0.26065	99336.73199	3015.95984
0.25966	99254.70508	3014.95984
0.25868	99172.90016	3013.95984
0.25770	99091.31576	3012.95984
0.25673	99009.95041	3011.95984
0.25576	98928.80267	3010.95984
0.25479	98847.87109	3009.95984
0.25383	98767.15427	3008.95984
0.25288	98686.65077	3007.95984
0.25193	98606.35921	3006.95984
0.25098	98526.27819	3005.95984
0.25004	98446.40632	3004.95984
0.24911	98366.74225	3003.95984
0.24818	98287.28462	3002.95984
0.24725	98208.03208	3001.95984
0.24633	98128.98330	3000.95984
0.24541	98050.13694	2999.95984
0.24450	97971.49171	2998.95984
0.24359	97893.04629	2997.95984
0.24269	97814.79940	2996.95984
0.24179	97736.74975	2995.95984
0.24089	97658.89607	2994.95984
0.24000	97581.23711	2993.95984
0.23912	97503.77160	2992.95984
0.23823	97426.49830	2991.95984
0.23736	97349.41600	2990.95984
0.23648	97272.52346	2989.95984
0.23561	97195.81947	2988.95984
0.23475	97119.30283	2987.95984
0.23389	97042.97236	2986.95984
0.23303	96966.82685	2985.95984
0.23218	96890.86516	2984.95984
0.23133	96815.08609	2983.95984
0.23049	96739.48851	2982.95984
0.22965	96664.07127	2981.95984
0.22881	96588.83323	2980.95984
0.22798	96513.77326	2979.95984
0.22715	96438.89024	2978.95984
0.22633	96364.18306	2977.95984
0.22551	96289.65062	2976.95984
0.22469	96215.29183	2975.95984
0.22388	96141.10560	2974.95984
0.22307	96067.09085	2973.95984
0.22227	95993.24653	2972.95984
0.22147	95919.57156	2971.95984
0.22067	95846.06490	2970.95984
0.21988	95772.72551	2969.95984
0.21909	95699.55234	2968.95984
0.21830	95626.54438	2967.95984
0.21752	95553.70060	2966.95984
0.21674	95481.02000	2965.95984
0.21597	95408.50156	2964.95984
0.21519	95336.14430	2963.95984
0.21443	95263.94722	2962.95984
0.21366	95191.90934	2961.95984
0.21290	95120.02970	2960.95984
0.21215	95048.30733	2959.95984
0.21139	94976.74126	2958.95984
0.21064	94905.33055	2957.95984
0.20990	94834.07426	2956.95984
0.20915	94762.97144	2955.95984
0.20841	94692.02117	2954.95984
0.20768	94621.22253	2953.95984
0.20695	94550.57460	2952.95984
0.20622	94480.07647	2951.95984
0.20549	94409.72724	2950.95984
0.20477	94339.52603	2949.95984
0.20405	94269.47193	2948.95984
0.20333	94199.56406	2947.95984
0.20262	94129.80157	2946.95984
0.20191	94060.18356	2945.95984
0.20121	93990.70920	2944.95984
0.20050	93921.37761	2943.95984
0.19980	93852.18795	2942.95984
0.19911	93783.13938	2941.95984
0.19841	93714.23106	2940.95984
0.19772	93645.46217	2939.95984
0.19704	93576.83187	2938.95984
0.19635	93508.33936	2937.95984
0.19567	93439.98381	2936.95984
0.19499	93371.76443	2935.95984
0.19432	93303.68042	2934.95984
0.19365	93235.73098	2933.95984
0.19298	93167.91532	2932.95984
0.19231	93100.23267	2931.95984
0.19165	93032.68224	2930.95984
0.19099	92965.26327	2929.95984
0.19033	92897.97499	2928.95984
0.18968	92830.81665	2927.95984
0.18903	92763.78748	2926.95984
0.18838	92696.88674	2925.95984
0.18774	92630.11369	2924.95984
0.18709	92563.46759	2923.95984
0.18645	92496.94772	2922.95984
0.18582	92430.55333	2921.95984
0.18518	92364.28372	2920.95984
0.18455	92298.13816	2919.95984
0.18392	92232.11595	2918.95984
0.18330	92166.21638	2917.95984
0.18268	92100.43875	2916.95984
0.18206	92034.78236	2915.95984
0.18144	91969.24652	2914.95984
0.18082	91903.83055	2913.95984
0.18021	91838.53378	2912.95984
0.17960	91773.35551	2911.95984
0.17900	91708.29508	2910.95984
0.17839	91643.35183	2909.95984
0.17779	91578.52509	2908.95984
0.17719	91513.81421	2907.95984
0.17660	91449.21854	2906.95984
0.17600	91384.73742	2905.95984
0.17541	91320.37023	2904.95984
0.17482	91256.11630	2903.95984
0.17424	91191.97503	2902.95984
0.17365	91127.94577	2901.95984
0.17307	91064.02790	2900.95984
0.17249	91000.22080	2899.95984
0.17192	90936.52386	2898.95984
0.17134	90872.93647	2897.95984
0.17077	90809.45801	2896.95984
0.17020	90746.08788	2895.95984
0.16964	90682.82550	2894.95984
0.16907	90619.67025	2893.95984
0.16851	90556.62156	2892.95984
0.16795	90493.67883	2891.95984
0.16740	90430.84149	2890.95984
0.16684	90368.10895	2889.95984
0.16629	90305.48065	2888.95984
0.16574	90242.95600	2887.95984
0.16519	90180.53446	2886.95984
0.16465	90118.21545	2885.95984
0.16411	90055.99842	2884.95984
0.16357	89993.88281	2883.95984
0.16303	89931.86807	2882.95984
0.16249	89869.95366	2881.95984
0.16196	89808.13903	2880.95984
0.16143	89746.42365	2879.95984
0.16090	89684.80698	2878.95984
0.16037	89623.28848	2877.95984
0.15984	89561.86764	2876.95984
0.15932	89500.54392	2875.95984
0.15880	89439.31680	2874.95984
0.15828	89378.18578	2873.95984
0.15777	89317.15033	2872.95984
0.15725	89256.20994	2871.95984
0.15674	89195.36411	2870.95984
0.15623	89134.61234	2869.95984
0.15572	89073.95412	2868.95984
0.15522	89013.38896	2867.95984
0.15471	88952.91637	2866.95984
0.15421	88892.53585	2865.95984
0.15371	88832.24693	2864.95984
0.15322	88772.04911	2863.95984
0.15272	88711.94192	2862.95984
0.15223	88651.92488	2861.95984
0.15173	88591.99752	2860.95984
0.15125	88532.15936	2859.95984
0.15076	88472.40995	2858.95984
0.15027	88412.74882	2857.95984
0.14979	88353.17550	2856.95984
0.14931	88293.68954	2855.95984
0.14883	88234.29049	2854.95984
0.14835	88174.97789	2853.95984
0.14787	88115.75129	2852.95984
0.14740	88056.61026	2851.95984
0.14693	87997.55434	2850.95984
0.14646	87938.58310	2849.95984
0.14599	87879.69610	2848.95984
0.14552	87820.89290	2847.95984
0.14506	87762.17309	2846.95984
0.14460	87703.53622	2845.95984
0.14414	87644.98188	2844.95984
0.14368	87586.50964	2843.95984
0.14322	87528.11908	2842.95984
0.14276	87469.80978	2841.95984
0.14231	87411.58134	2840.95984
0.14186	87353.43333	2839.95984
0.14141	87295.36536	2838.95984
0.14096	87237.37701	2837.95984
0.14052	87179.46789	2836.95984
0.14007	87121.63758	2835.95984
0.13963	87063.88570	2834.95984
0.13919	87006.21185	2833.95984
0.13875	86948.61563	2832.95984
0.13831	86891.09666	2831.95984
0.13787	86833.65454	2830.95984
0.13744	86776.28890	2829.95984
0.13701	86718.99934	2828.95984
0.13658	86661.78550	2827.95984
0.13615	86604.64699	2826.95984
0.13572	86547.58343	2825.95984
0.13529	86490.59446	2824.95984
0.13487	86433.67970	2823.95984
0.13445	86376.83878	2822.95984
0.13403	86320.07135	2821.95984
0.13361	86263.37703	2820.95984
0.13319	86206.75547	2819.95984
0.13277	86150.20630	2818.95984
0.13236	86093.72917	2817.95984
0.13194	86037.32373	2816.95984
0.13153	85980.98962	2815.95984
0.13112	85924.72649	2814.95984
0.13072	85868.53401	2813.95984
0.13031	85812.41181	2812.95984
0.12990	85756.35957	2811.95984
0.12950	85700.37693	2810.95984
0.12910	85644.46356	2809.95984
0.12870	85588.61913	2808.95984
0.12830	85532.84329	2807.95984
0.12790	85477.13572	2806.95984
0.12750	85421.49609	2805.95984
0.12711	85365.92407	2804.95984
0.12672	85310.41933	2803.95984
0.12633	85254.98155	2802.95984
0.12594	85199.61040	2801.95984
0.12555	85144.30557	2800.95984
0.12516	85089.06675	2799.95984
0.12477	85033.89360	2798.95984
0.12439	84978.78583	2797.95984
0.12401	84923.74311	2796.95984
0.12363	84868.76514	2795.95984
0.12325	84813.85161	2794.95984
0.12287	84759.00222	2793.95984
0.12249	84704.21666	2792.95984
0.12211	84649.49462	2791.95984
0.12174	84594.83581	2790.95984
0.12137	84540.23993	2789.95984
0.12100	84485.70668	2788.95984
0.12063	84431.23577	2787.95984
0.12026	84376.82690	2786.95984
0.11989	84322.47979	2785.95984
0.11952	84268.19414	2784.95984
0.11916	84213.96966	2783.95984
0.11879	84159.80608	2782.95984
0.11843	84105.70310	2781.95984
0.11807	84051.66045	2780.95984
0.11771	83997.67784	2779.95984
0.11735	83943.75499	2778.95984
0.11700	83889.89163	2777.95984
0.11664	83836.08749	2776.95984
0.11629	83782.34228	2775.95984
0.11593	83728.65574	2774.95984
0.11558	83675.02759	2773.95984
0.11523	83621.45757	2772.95984
0.11488	83567.94541	2771.95984
0.11454	83514.49085	2770.95984
0.11419	83461.09361	2769.95984
0.11384	83407.75344	2768.95984
0.11350	83354.47008	2767.95984
0.11316	83301.24327	2766.95984
0.11281	83248.07275	2765.95984
0.11247	83194.95827	2764.95984
0.11214	83141.89956	2763.95984
0.11180	83088.89638	2762.95984
0.11146	83035.94848	2761.95984
0.11112	82983.05561	2760.95984
0.11079	82930.21751	2759.95984
0.11046	82877.43394	2758.95984
0.11012	82824.70466	2757.95984
0.10979	82772.02942	2756.95984
0.10946	82719.40797	2755.95984
0.10914	82666.84009	2754.95984
0.10881	82614.32552	2753.95984
0.10848	82561.86404	2752.95984
0.10816	82509.45540	2751.95984
0.10783	82457.09936	2750.95984
0.10751	82404.79570	2749.95984
0.10719	82352.54418	2748.95984
0.10687	82300.34458	2747.95984
0.10655	82248.19665	2746.95984
0.10623	82196.10017	2745.95984
0.10591	82144.05493	2744.95984
0.10560	82092.06067	2743.95984
0.10528	82040.11720	2742.95984
0.10497	81988.22428	2741.95984
0.10466	81936.38168	2740.95984
0.10434	81884.58920	2739.95984
0.10403	81832.84661	2738.95984
0.10372	81781.15369	2737.95984
0.10342	81729.51022	2736.95984
0.10311	81677.91600	2735.95984
0.10280	81626.37080	2734.95984
0.10250	81574.87442	2733.95984
0.10219	81523.42664	2732.95984
0.10189	81472.02725	2731.95984
0.10159	81420.67605	2730.95984
0.10129	81369.37282	2729.95984
0.10099	81318.11736	2728.95984
0.10069	81266.90946	2727.95984
0.10039	81215.74892	2726.95984
0.10009	81164.63553	2725.95984
0.09979	81113.56910	2724.95984
0.09950	81062.54942	2723.95984
0.09921	81011.57630	2722.95984
0.09891	80960.64953	2721.95984
0.09862	80909.76891	2720.95984
0.09833	80858.93426	2719.95984
0.09804	80808.14537	2718.95984
0.09775	80757.40206	2717.95984
0.09746	80706.70413	2716.95984
0.09717	80656.05138	2715.95984
0.09689	80605.44363	2714.95984
0.09660	80554.88069	2713.95984
0.09632	80504.36237	2712.95984
0.09604	80453.88847	2711.95984
0.09575	80403.45883	2710.95984
0.09547	80353.07325	2709.95984
0.09519	80302.73154	2708.95984
0.09491	80252.43352	2707.95984
0.09463	80202.17902	2706.95984
0.09436	80151.96785	2705.95984
0.09408	80101.79982	2704.95984
0.09380	80051.67477	2703.95984
0.09353	80001.59251	2702.95984
0.09325	79951.55287	2701.95984
0.09298	79901.55567	2700.95984
0.09271	79851.60073	2699.95984
0.09244	79801.68788	2698.95984
0.09217	79751.81695	2697.95984
0.09190	79701.98777	2696.95984
0.09163	79652.20017	2695.95984
0.09136	79602.45396	2694.95984
0.09109	79552.74900	2693.95984
0.09083	79503.08510	2692.95984
0.09056	79453.46211	2691.95984
0.09030	79403.87984	2690.95984
0.09003	79354.33815	2689.95984
0.08977	79304.83686	2688.95984
0.08951	79255.37581	2687.95984
0.08925	79205.95484	2686.95984
0.08899	79156.57379	2685.95984
0.08873	79107.23249	2684.95984
0.08847	79057.93078	2683.95984
0.08821	79008.66852	2682.95984
0.08795	78959.44553	2681.95984
0.08770	78910.26166	2680.95984
0.08744	78861.11676	2679.95984
0.08719	78812.01067	2678.95984
0.08694	78762.94323	2677.95984
0.08668	78713.91429	2676.95984
0.08643	78664.92370	2675.95984
0.08618	78615.97131	2674.95984
0.08593	78567.05696	2673.95984
0.08568	78518.18050	2672.95984
0.08543	78469.34179	2671.95984
0.08518	78420.54067	2670.95984
0.08494	78371.77700	2669.95984
0.08469	78323.05063	2668.95984
0.08444	78274.36142	2667.95984
0.08420	78225.70921	2666.95984
0.08395	78177.09386	2665.95984
0.08371	78128.51524	2664.95984
0.08347	78079.97319	2663.95984
0.08323	78031.46757	2662.95984
0.08299	77982.99824	2661.95984
0.08274	77934.56507	2660.95984
0.08251	77886.16790	2659.95984
0.08227	77837.80661	2658.95984
0.08203	77789.48105	2657.95984
0.08179	77741.19109	2656.95984
0.08155	77692.93658	2655.95984
0.08132	77644.71739	2654.95984
0.08108	77596.53339	2653.95984
0.08085	77548.38444	2652.95984
0.08061	77500.27041	2651.95984
0.08038	77452.19116	2650.95984
0.08015	77404.14656	2649.95984
0.07992	77356.13647	2648.95984
0.07969	77308.16078	2647.95984
0.07946	77260.21934	2646.95984
0.07923	77212.31202	2645.95984
0.07900	77164.43870	2644.95984
0.07877	77116.59926	2643.95984
0.07854	77068.79355	2642.95984
0.07832	77021.02145	2641.95984
0.07809	76973.28284	2640.95984
0.07786	76925.57760	2639.95984
0.07764	76877.90558	2638.95984
0.07742	76830.26668	2637.95984
