Mole fraction of liquid	Heat per mole [J]	Temperature [K]
1.00000	1.43656E5	3298.30413
0.99996	1.43650E5	3298.20850
0.99365	1.43325E5	3297.20850
0.98739	1.43001E5	3296.20850
0.98118	1.42680E5	3295.20850
0.97503	1.42362E5	3294.20850
0.96893	1.42046E5	3293.20850
0.96289	1.41733E5	3292.20850
0.95689	1.41422E5	3291.20850
0.95095	1.41114E5	3290.20850
0.94506	1.40807E5	3289.20850
0.93922	1.40504E5	3288.20850
0.93343	1.40202E5	3287.20850
0.92769	1.39903E5	3286.20850
0.92200	1.39606E5	3285.20850
0.91636	1.39312E5	3284.20850
0.91076	1.39019E5	3283.20850
0.90521	1.38729E5	3282.20850
0.89971	1.38441E5	3281.20850
0.89426	1.38155E5	3280.20850
0.88885	1.37872E5	3279.20850
0.88349	1.37590E5	3278.20850
0.87817	1.37310E5	3277.20850
0.87289	1.37033E5	3276.20850
0.86766	1.36757E5	3275.20850
0.86248	1.36484E5	3274.20850
0.85733	1.36213E5	3273.20850
0.85223	1.35943E5	3272.20850
0.84717	1.35676E5	3271.20850
0.84215	1.35410E5	3270.20850
0.83718	1.35146E5	3269.20850
0.83224	1.34885E5	3268.20850
0.82734	1.34625E5	3267.20850
0.82249	1.34367E5	3266.20850
0.81767	1.34110E5	3265.20850
0.81289	1.33856E5	3264.20850
0.80816	1.33603E5	3263.20850
0.80345	1.33352E5	3262.20850
0.79879	1.33103E5	3261.20850
0.79417	1.32856E5	3260.20850
0.78958	1.32610E5	3259.20850
0.78503	1.32366E5	3258.20850
0.78051	1.32124E5	3257.20850
0.77603	1.31883E5	3256.20850
0.77159	1.31644E5	3255.20850
0.76718	1.31406E5	3254.20850
0.76281	1.31171E5	3253.20850
0.75847	1.30936E5	3252.20850
0.75416	1.30704E5	3251.20850
0.74989	1.30473E5	3250.20850
0.74565	1.30243E5	3249.20850
0.74145	1.30015E5	3248.20850
0.73727	1.29788E5	3247.20850
0.73314	1.29563E5	3246.20850
0.72903	1.29340E5	3245.20850
0.72495	1.29118E5	3244.20850
0.72091	1.28897E5	3243.20850
0.71689	1.28678E5	3242.20850
0.71291	1.28460E5	3241.20850
0.70896	1.28244E5	3240.20850
0.70504	1.28029E5	3239.20850
0.70115	1.27815E5	3238.20850
0.69729	1.27603E5	3237.20850
0.69345	1.27392E5	3236.20850
0.68965	1.27183E5	3235.20850
0.68587	1.26974E5	3234.20850
0.68213	1.26767E5	3233.20850
0.67841	1.26562E5	3232.20850
0.67472	1.26357E5	3231.20850
0.67106	1.26154E5	3230.20850
0.66742	1.25952E5	3229.20850
0.66382	1.25752E5	3228.20850
0.66023	1.25553E5	3227.20850
0.65668	1.25354E5	3226.20850
0.65315	1.25157E5	3225.20850
0.64965	1.24962E5	3224.20850
0.64618	1.24767E5	3223.20850
0.64273	1.24574E5	3222.20850
0.63930	1.24382E5	3221.20850
0.63590	1.24191E5	3220.20850
0.63253	1.24001E5	3219.20850
0.62918	1.23812E5	3218.20850
0.62585	1.23624E5	3217.20850
0.62255	1.23438E5	3216.20850
0.61927	1.23252E5	3215.20850
0.61602	1.23068E5	3214.20850
0.61279	1.22885E5	3213.20850
0.60958	1.22702E5	3212.20850
0.60640	1.22521E5	3211.20850
0.60324	1.22341E5	3210.20850
0.60010	1.22162E5	3209.20850
0.59698	1.21984E5	3208.20850
0.59389	1.21807E5	3207.20850
0.59082	1.21631E5	3206.20850
0.58777	1.21456E5	3205.20850
0.58474	1.21282E5	3204.20850
0.58174	1.21109E5	3203.20850
0.57875	1.20937E5	3202.20850
0.57579	1.20766E5	3201.20850
0.57284	1.20595E5	3200.20850
0.56992	1.20426E5	3199.20850
0.56702	1.20258E5	3198.20850
0.56414	1.20090E5	3197.20850
0.56128	1.19924E5	3196.20850
0.55843	1.19758E5	3195.20850
0.55561	1.19594E5	3194.20850
0.55281	1.19430E5	3193.20850
0.55003	1.19267E5	3192.20850
0.54726	1.19105E5	3191.20850
0.54452	1.18944E5	3190.20850
0.54179	1.18784E5	3189.20850
0.53909	1.18624E5	3188.20850
0.53640	1.18465E5	3187.20850
0.53373	1.18308E5	3186.20850
0.53108	1.18151E5	3185.20850
0.52844	1.17995E5	3184.20850
0.52583	1.17839E5	3183.20850
0.52323	1.17685E5	3182.20850
0.52065	1.17531E5	3181.20850
0.51809	1.17378E5	3180.20850
0.51554	1.17226E5	3179.20850
0.51301	1.17075E5	3178.20850
0.51050	1.16924E5	3177.20850
0.50801	1.16774E5	3176.20850
0.50553	1.16625E5	3175.20850
0.50307	1.16477E5	3174.20850
0.50062	1.16330E5	3173.20850
0.49820	1.16183E5	3172.20850
0.49578	1.16037E5	3171.20850
0.49339	1.15891E5	3170.20850
0.49101	1.15747E5	3169.20850
0.48864	1.15603E5	3168.20850
0.48629	1.15460E5	3167.20850
0.48396	1.15317E5	3166.20850
0.48164	1.15175E5	3165.20850
0.47934	1.15034E5	3164.20850
0.47705	1.14894E5	3163.20850
0.47478	1.14754E5	3162.20850
0.47252	1.14615E5	3161.20850
0.47027	1.14476E5	3160.20850
0.46804	1.14339E5	3159.20850
0.46583	1.14201E5	3158.20850
0.46363	1.14065E5	3157.20850
0.46144	1.13929E5	3156.20850
0.45927	1.13794E5	3155.20850
0.45711	1.13659E5	3154.20850
0.45497	1.13525E5	3153.20850
0.45284	1.13392E5	3152.20850
0.45072	1.13259E5	3151.20850
0.44862	1.13127E5	3150.20850
0.44653	1.12996E5	3149.20850
0.44445	1.12865E5	3148.20850
0.44239	1.12734E5	3147.20850
0.44034	1.12605E5	3146.20850
0.43830	1.12476E5	3145.20850
0.43628	1.12347E5	3144.20850
0.43426	1.12219E5	3143.20850
0.43227	1.12092E5	3142.20850
0.43028	1.11965E5	3141.20850
0.42831	1.11839E5	3140.20850
0.42634	1.11713E5	3139.20850
0.42439	1.11588E5	3138.20850
0.42246	1.11463E5	3137.20850
0.42053	1.11339E5	3136.20850
0.41862	1.11215E5	3135.20850
0.41672	1.11092E5	3134.20850
0.41483	1.10970E5	3133.20850
0.41295	1.10848E5	3132.20850
0.41108	1.10726E5	3131.20850
0.40923	1.10606E5	3130.20850
0.40738	1.10485E5	3129.20850
0.40555	1.10365E5	3128.20850
0.40373	1.10246E5	3127.20850
0.40192	1.10127E5	3126.20850
0.40012	1.10009E5	3125.20850
0.39833	1.09891E5	3124.20850
0.39656	1.09773E5	3123.20850
0.39479	1.09656E5	3122.20850
0.39304	1.09540E5	3121.20850
0.39129	1.09424E5	3120.20850
0.38956	1.09308E5	3119.20850
0.38783	1.09193E5	3118.20850
0.38612	1.09079E5	3117.20850
0.38441	1.08965E5	3116.20850
0.38272	1.08851E5	3115.20850
0.38104	1.08738E5	3114.20850
0.37937	1.08625E5	3113.20850
0.37770	1.08513E5	3112.20850
0.37605	1.08401E5	3111.20850
0.37441	1.08289E5	3110.20850
0.37277	1.08178E5	3109.20850
0.37115	1.08068E5	3108.20850
0.36953	1.07958E5	3107.20850
0.36793	1.07848E5	3106.20850
0.36633	1.07739E5	3105.20850
0.36475	1.07630E5	3104.20850
0.36317	1.07521E5	3103.20850
0.36160	1.07413E5	3102.20850
0.36005	1.07306E5	3101.20850
0.35850	1.07199E5	3100.20850
0.35696	1.07092E5	3099.20850
0.35543	1.06985E5	3098.20850
0.35390	1.06879E5	3097.20850
0.35239	1.06774E5	3096.20850
0.35089	1.06669E5	3095.20850
0.34939	1.06564E5	3094.20850
0.34790	1.06459E5	3093.20850
0.34642	1.06355E5	3092.20850
0.34495	1.06252E5	3091.20850
0.34349	1.06148E5	3090.20850
0.34204	1.06045E5	3089.20850
0.34059	1.05943E5	3088.20850
0.33916	1.05841E5	3087.20850
0.33773	1.05739E5	3086.20850
0.33631	1.05637E5	3085.20850
0.33489	1.05536E5	3084.20850
0.33349	1.05435E5	3083.20850
0.33209	1.05335E5	3082.20850
0.33070	1.05235E5	3081.20850
0.32932	1.05135E5	3080.20850
0.32795	1.05036E5	3079.20850
0.32659	1.04937E5	3078.20850
0.32523	1.04838E5	3077.20850
0.32388	1.04740E5	3076.20850
0.32254	1.04642E5	3075.20850
0.32120	1.04544E5	3074.20850
0.31987	1.04447E5	3073.20850
0.31855	1.04350E5	3072.20850
0.31724	1.04253E5	3071.20850
0.31593	1.04157E5	3070.20850
0.31464	1.04061E5	3069.20850
0.31334	1.03965E5	3068.20850
0.31206	1.03870E5	3067.20850
0.31078	1.03775E5	3066.20850
0.30951	1.03680E5	3065.20850
0.30825	1.03586E5	3064.20850
0.30699	1.03492E5	3063.20850
0.30575	1.03398E5	3062.20850
0.30450	1.03304E5	3061.20850
0.30327	1.03211E5	3060.20850
0.30204	1.03118E5	3059.20850
0.30082	1.03026E5	3058.20850
0.29960	1.02933E5	3057.20850
0.29839	1.02841E5	3056.20850
0.29719	1.02750E5	3055.20850
0.29599	1.02658E5	3054.20850
0.29480	1.02567E5	3053.20850
0.29362	1.02476E5	3052.20850
0.29245	1.02385E5	3051.20850
0.29128	1.02295E5	3050.20850
0.29011	1.02205E5	3049.20850
0.28895	1.02115E5	3048.20850
0.28780	1.02026E5	3047.20850
0.28666	1.01937E5	3046.20850
0.28552	1.01848E5	3045.20850
0.28438	1.01759E5	3044.20850
0.28326	1.01671E5	3043.20850
0.28214	1.01583E5	3042.20850
0.28102	1.01495E5	3041.20850
0.27991	1.01407E5	3040.20850
0.27881	1.01320E5	3039.20850
0.27771	1.01233E5	3038.20850
0.27662	1.01146E5	3037.20850
0.27553	1.01059E5	3036.20850
0.27445	1.00973E5	3035.20850
0.27338	1.00887E5	3034.20850
0.27231	1.00801E5	3033.20850
0.27124	1.00715E5	3032.20850
0.27018	1.00630E5	3031.20850
0.26913	1.00545E5	3030.20850
0.26808	1.00460E5	3029.20850
0.26704	1.00376E5	3028.20850
0.26601	1.00291E5	3027.20850
0.26498	1.00207E5	3026.20850
0.26395	1.00123E5	3025.20850
0.26293	1.00040E5	3024.20850
0.26191	99956.08186	3023.20850
0.26090	99872.89214	3022.20850
0.25990	99789.93227	3021.20850
0.25890	99707.20071	3020.20850
0.25791	99624.69591	3019.20850
0.25692	99542.41636	3018.20850
0.25593	99460.36055	3017.20850
0.25495	99378.52697	3016.20850
0.25398	99296.91415	3015.20850
0.25301	99215.52061	3014.20850
0.25204	99134.34489	3013.20850
0.25108	99053.38555	3012.20850
0.25013	98972.64114	3011.20850
0.24918	98892.11024	3010.20850
0.24823	98811.79144	3009.20850
0.24729	98731.68334	3008.20850
0.24636	98651.78455	3007.20850
0.24543	98572.09369	3006.20850
0.24450	98492.60939	3005.20850
0.24358	98413.33030	3004.20850
0.24266	98334.25507	3003.20850
0.24175	98255.38236	3002.20850
0.24084	98176.71087	3001.20850
0.23994	98098.23926	3000.20850
0.23904	98019.96625	2999.20850
0.23814	97941.89054	2998.20850
0.23725	97864.01084	2997.20850
0.23637	97786.32590	2996.20850
0.23549	97708.83444	2995.20850
0.23461	97631.53523	2994.20850
0.23374	97554.42701	2993.20850
0.23287	97477.50856	2992.20850
0.23200	97400.77866	2991.20850
0.23114	97324.23610	2990.20850
0.23029	97247.87967	2989.20850
0.22944	97171.70820	2988.20850
0.22859	97095.72049	2987.20850
0.22775	97019.91537	2986.20850
0.22691	96944.29168	2985.20850
0.22607	96868.84826	2984.20850
0.22524	96793.58398	2983.20850
0.22441	96718.49770	2982.20850
0.22359	96643.58828	2981.20850
0.22277	96568.85462	2980.20850
0.22196	96494.29560	2979.20850
0.22115	96419.91012	2978.20850
0.22034	96345.69710	2977.20850
0.21954	96271.65545	2976.20850
0.21874	96197.78409	2975.20850
0.21794	96124.08195	2974.20850
0.21715	96050.54800	2973.20850
0.21636	95977.18116	2972.20850
0.21558	95903.98040	2971.20850
0.21479	95830.94469	2970.20850
0.21402	95758.07301	2969.20850
0.21324	95685.36432	2968.20850
0.21247	95612.81764	2967.20850
0.21171	95540.43195	2966.20850
0.21095	95468.20626	2965.20850
0.21019	95396.13959	2964.20850
0.20943	95324.23095	2963.20850
0.20868	95252.47939	2962.20850
0.20793	95180.88392	2961.20850
0.20719	95109.44360	2960.20850
0.20645	95038.15748	2959.20850
0.20571	94967.02461	2958.20850
0.20497	94896.04407	2957.20850
0.20424	94825.21493	2956.20850
0.20352	94754.53625	2955.20850
0.20279	94684.00715	2954.20850
0.20207	94613.62670	2953.20850
0.20135	94543.39400	2952.20850
0.20064	94473.30817	2951.20850
0.19993	94403.36833	2950.20850
0.19922	94333.57358	2949.20850
0.19852	94263.92306	2948.20850
0.19782	94194.41590	2947.20850
0.19712	94125.05125	2946.20850
0.19642	94055.82825	2945.20850
0.19573	93986.74605	2944.20850
0.19504	93917.80382	2943.20850
0.19436	93849.00072	2942.20850
0.19368	93780.33593	2941.20850
0.19300	93711.80862	2940.20850
0.19232	93643.41797	2939.20850
0.19165	93575.16319	2938.20850
0.19098	93507.04346	2937.20850
0.19031	93439.05799	2936.20850
0.18965	93371.20599	2935.20850
0.18899	93303.48667	2934.20850
0.18833	93235.89925	2933.20850
0.18768	93168.44297	2932.20850
0.18703	93101.11705	2931.20850
0.18638	93033.92072	2930.20850
0.18573	92966.85324	2929.20850
0.18509	92899.91386	2928.20850
0.18445	92833.10182	2927.20850
0.18381	92766.41638	2926.20850
0.18318	92699.85682	2925.20850
0.18254	92633.42240	2924.20850
0.18192	92567.11240	2923.20850
0.18129	92500.92610	2922.20850
0.18067	92434.86279	2921.20850
0.18005	92368.92176	2920.20850
0.17943	92303.10230	2919.20850
0.17881	92237.40372	2918.20850
0.17820	92171.82533	2917.20850
0.17759	92106.36643	2916.20850
0.17698	92041.02635	2915.20850
0.17638	91975.80440	2914.20850
0.17578	91910.69992	2913.20850
0.17518	91845.71223	2912.20850
0.17458	91780.84068	2911.20850
0.17399	91716.08460	2910.20850
0.17340	91651.44334	2909.20850
0.17281	91586.91624	2908.20850
0.17222	91522.50268	2907.20850
0.17164	91458.20200	2906.20850
0.17106	91394.01357	2905.20850
0.17048	91329.93676	2904.20850
0.16990	91265.97094	2903.20850
0.16933	91202.11550	2902.20850
0.16876	91138.36980	2901.20850
0.16819	91074.73325	2900.20850
0.16762	91011.20524	2899.20850
0.16706	90947.78515	2898.20850
0.16650	90884.47239	2897.20850
0.16594	90821.26636	2896.20850
0.16538	90758.16647	2895.20850
0.16483	90695.17213	2894.20850
0.16428	90632.28276	2893.20850
0.16373	90569.49779	2892.20850
0.16318	90506.81662	2891.20850
0.16264	90444.23870	2890.20850
0.16210	90381.76346	2889.20850
0.16156	90319.39033	2888.20850
0.16102	90257.11876	2887.20850
0.16048	90194.94819	2886.20850
0.15995	90132.87806	2885.20850
0.15942	90070.90783	2884.20850
0.15889	90009.03696	2883.20850
0.15836	89947.26490	2882.20850
0.15784	89885.59112	2881.20850
0.15732	89824.01509	2880.20850
0.15680	89762.53628	2879.20850
0.15628	89701.15415	2878.20850
0.15576	89639.86820	2877.20850
0.15525	89578.67791	2876.20850
0.15474	89517.58275	2875.20850
0.15423	89456.58222	2874.20850
0.15372	89395.67580	2873.20850
0.15322	89334.86301	2872.20850
0.15271	89274.14333	2871.20850
0.15221	89213.51627	2870.20850
0.15171	89152.98133	2869.20850
0.15122	89092.53802	2868.20850
0.15072	89032.18587	2867.20850
0.15023	88971.92438	2866.20850
0.14974	88911.75307	2865.20850
0.14925	88851.67146	2864.20850
0.14876	88791.67909	2863.20850
0.14828	88731.77548	2862.20850
0.14780	88671.96016	2861.20850
0.14732	88612.23268	2860.20850
0.14684	88552.59256	2859.20850
0.14636	88493.03935	2858.20850
0.14589	88433.57260	2857.20850
0.14541	88374.19185	2856.20850
0.14494	88314.89666	2855.20850
0.14447	88255.68657	2854.20850
0.14401	88196.56115	2853.20850
0.14354	88137.51995	2852.20850
0.14308	88078.56255	2851.20850
0.14262	88019.68850	2850.20850
0.14216	87960.89737	2849.20850
0.14170	87902.18874	2848.20850
0.14124	87843.56217	2847.20850
0.14079	87785.01726	2846.20850
0.14034	87726.55357	2845.20850
0.13988	87668.17069	2844.20850
0.13944	87609.86820	2843.20850
0.13899	87551.64571	2842.20850
0.13854	87493.50278	2841.20850
0.13810	87435.43903	2840.20850
0.13766	87377.45404	2839.20850
0.13722	87319.54741	2838.20850
0.13678	87261.71876	2837.20850
0.13634	87203.96767	2836.20850
0.13591	87146.29376	2835.20850
0.13548	87088.69664	2834.20850
0.13504	87031.17592	2833.20850
0.13462	86973.73122	2832.20850
0.13419	86916.36215	2831.20850
0.13376	86859.06833	2830.20850
0.13334	86801.84938	2829.20850
0.13291	86744.70493	2828.20850
0.13249	86687.63461	2827.20850
0.13207	86630.63804	2826.20850
0.13165	86573.71486	2825.20850
0.13124	86516.86470	2824.20850
0.13082	86460.08720	2823.20850
0.13041	86403.38199	2822.20850
0.13000	86346.74873	2821.20850
0.12959	86290.18704	2820.20850
0.12918	86233.69659	2819.20850
0.12877	86177.27701	2818.20850
0.12837	86120.92795	2817.20850
0.12796	86064.64908	2816.20850
0.12756	86008.44004	2815.20850
0.12716	85952.30049	2814.20850
0.12676	85896.23010	2813.20850
0.12637	85840.22851	2812.20850
0.12597	85784.29540	2811.20850
0.12557	85728.43044	2810.20850
0.12518	85672.63328	2809.20850
0.12479	85616.90360	2808.20850
0.12440	85561.24108	2807.20850
0.12401	85505.64538	2806.20850
0.12362	85450.11618	2805.20850
0.12324	85394.65316	2804.20850
0.12285	85339.25601	2803.20850
0.12247	85283.92440	2802.20850
0.12209	85228.65802	2801.20850
0.12171	85173.45655	2800.20850
0.12133	85118.31969	2799.20850
0.12096	85063.24711	2798.20850
0.12058	85008.23853	2797.20850
0.12021	84953.29362	2796.20850
0.11983	84898.41209	2795.20850
0.11946	84843.59363	2794.20850
0.11909	84788.83795	2793.20850
0.11872	84734.14474	2792.20850
0.11836	84679.51371	2791.20850
0.11799	84624.94457	2790.20850
0.11763	84570.43702	2789.20850
0.11726	84515.99077	2788.20850
0.11690	84461.60553	2787.20850
0.11654	84407.28101	2786.20850
0.11618	84353.01694	2785.20850
0.11582	84298.81302	2784.20850
0.11547	84244.66897	2783.20850
0.11511	84190.58452	2782.20850
0.11476	84136.55938	2781.20850
0.11441	84082.59328	2780.20850
0.11405	84028.68594	2779.20850
0.11370	83974.83710	2778.20850
0.11336	83921.04647	2777.20850
0.11301	83867.31378	2776.20850
0.11266	83813.63878	2775.20850
0.11232	83760.02119	2774.20850
0.11197	83706.46075	2773.20850
0.11163	83652.95719	2772.20850
0.11129	83599.51025	2771.20850
0.11095	83546.11968	2770.20850
0.11061	83492.78521	2769.20850
0.11027	83439.50658	2768.20850
0.10994	83386.28355	2767.20850
0.10960	83333.11585	2766.20850
0.10927	83280.00323	2765.20850
0.10894	83226.94545	2764.20850
0.10861	83173.94225	2763.20850
0.10828	83120.99339	2762.20850
0.10795	83068.09862	2761.20850
0.10762	83015.25769	2760.20850
0.10729	82962.47036	2759.20850
0.10697	82909.73639	2758.20850
0.10664	82857.05553	2757.20850
0.10632	82804.42756	2756.20850
0.10600	82751.85223	2755.20850
0.10568	82699.32930	2754.20850
0.10536	82646.85854	2753.20850
0.10504	82594.43972	2752.20850
0.10472	82542.07260	2751.20850
0.10440	82489.75696	2750.20850
0.10409	82437.49256	2749.20850
0.10377	82385.27918	2748.20850
0.10346	82333.11659	2747.20850
0.10315	82281.00456	2746.20850
0.10284	82228.94287	2745.20850
0.10253	82176.93130	2744.20850
0.10222	82124.96963	2743.20850
0.10191	82073.05764	2742.20850
0.10160	82021.19510	2741.20850
0.10130	81969.38181	2740.20850
0.10099	81917.61754	2739.20850
0.10069	81865.90208	2738.20850
0.10039	81814.23521	2737.20850
0.10009	81762.61673	2736.20850
0.09979	81711.04643	2735.20850
0.09949	81659.52408	2734.20850
0.09919	81608.04950	2733.20850
0.09889	81556.62245	2732.20850
0.09860	81505.24275	2731.20850
0.09830	81453.91019	2730.20850
0.09801	81402.62456	2729.20850
0.09771	81351.38566	2728.20850
0.09742	81300.19328	2727.20850
0.09713	81249.04724	2726.20850
0.09684	81197.94732	2725.20850
0.09655	81146.89334	2724.20850
0.09626	81095.88509	2723.20850
0.09598	81044.92238	2722.20850
0.09569	80994.00501	2721.20850
0.09540	80943.13279	2720.20850
0.09512	80892.30553	2719.20850
0.09484	80841.52304	2718.20850
0.09455	80790.78513	2717.20850
0.09427	80740.09161	2716.20850
0.09399	80689.44228	2715.20850
0.09371	80638.83697	2714.20850
0.09343	80588.27549	2713.20850
0.09316	80537.75765	2712.20850
0.09288	80487.28327	2711.20850
0.09260	80436.85217	2710.20850
0.09233	80386.46416	2709.20850
0.09206	80336.11907	2708.20850
0.09178	80285.81671	2707.20850
0.09151	80235.55691	2706.20850
0.09124	80185.33949	2705.20850
0.09097	80135.16428	2704.20850
0.09070	80085.03109	2703.20850
0.09043	80034.93975	2702.20850
0.09016	79984.89010	2701.20850
0.08990	79934.88195	2700.20850
0.08963	79884.91514	2699.20850
0.08937	79834.98949	2698.20850
0.08910	79785.10484	2697.20850
0.08884	79735.26102	2696.20850
0.08858	79685.45786	2695.20850
0.08831	79635.69519	2694.20850
0.08805	79585.97284	2693.20850
0.08779	79536.29066	2692.20850
0.08753	79486.64848	2691.20850
0.08728	79437.04613	2690.20850
0.08702	79387.48346	2689.20850
0.08676	79337.96029	2688.20850
0.08651	79288.47648	2687.20850
0.08625	79239.03187	2686.20850
0.08600	79189.62628	2685.20850
0.08574	79140.25957	2684.20850
0.08549	79090.93158	2683.20850
0.08524	79041.64216	2682.20850
0.08499	78992.39114	2681.20850
0.08474	78943.17838	2680.20850
0.08449	78894.00372	2679.20850
0.08424	78844.86700	2678.20850
0.08399	78795.76809	2677.20850
0.08375	78746.70682	2676.20850
0.08350	78697.68304	2675.20850
0.08326	78648.69661	2674.20850
0.08301	78599.74738	2673.20850
0.08277	78550.83520	2672.20850
0.08253	78501.95993	2671.20850
0.08228	78453.12141	2670.20850
0.08204	78404.31951	2669.20850
0.08180	78355.55408	2668.20850
0.08156	78306.82497	2667.20850
0.08132	78258.13205	2666.20850
0.08108	78209.47516	2665.20850
0.08085	78160.85418	2664.20850
0.08061	78112.26895	2663.20850
0.08037	78063.71934	2662.20850
0.08014	78015.20522	2661.20850
0.07990	77966.72644	2660.20850
0.07967	77918.28286	2659.20850
0.07944	77869.87435	2658.20850
0.07920	77821.50077	2657.20850
0.07897	77773.16199	2656.20850
0.07874	77724.85787	2655.20850
0.07851	77676.58829	2654.20850
0.07828	77628.35309	2653.20850
0.07805	77580.15217	2652.20850
0.07782	77531.98537	2651.20850
0.07760	77483.85258	2650.20850
0.07737	77435.75365	2649.20850
0.07714	77387.68847	2648.20850
0.07692	77339.65690	2647.20850
0.07669	77291.65882	2646.20850
0.07647	77243.69409	2645.20850
0.07625	77195.76260	2644.20850
0.07602	77147.86421	2643.20850
0.07580	77099.99880	2642.20850
0.07558	77052.16624	2641.20850
0.07536	77004.36641	2640.20850
0.07514	76956.59919	2639.20850
