Mole fraction of liquid	Heat per mole [J]	Temperature [K]
1.00000	1.46042E5	3349.91425
0.99996	1.46036E5	3349.81862
0.99283	1.45666E5	3348.81862
0.98577	1.45299E5	3347.81862
0.97878	1.44935E5	3346.81862
0.97187	1.44574E5	3345.81862
0.96502	1.44217E5	3344.81862
0.95823	1.43863E5	3343.81862
0.95152	1.43513E5	3342.81862
0.94487	1.43165E5	3341.81862
0.93828	1.42820E5	3340.81862
0.93176	1.42479E5	3339.81862
0.92530	1.42140E5	3338.81862
0.91891	1.41805E5	3337.81862
0.91257	1.41472E5	3336.81862
0.90630	1.41142E5	3335.81862
0.90009	1.40816E5	3334.81862
0.89393	1.40491E5	3333.81862
0.88784	1.40170E5	3332.81862
0.88180	1.39852E5	3331.81862
0.87582	1.39536E5	3330.81862
0.86990	1.39223E5	3329.81862
0.86404	1.38912E5	3328.81862
0.85822	1.38604E5	3327.81862
0.85247	1.38299E5	3326.81862
0.84677	1.37996E5	3325.81862
0.84112	1.37696E5	3324.81862
0.83552	1.37398E5	3323.81862
0.82997	1.37103E5	3322.81862
0.82448	1.36810E5	3321.81862
0.81904	1.36519E5	3320.81862
0.81365	1.36231E5	3319.81862
0.80830	1.35945E5	3318.81862
0.80301	1.35662E5	3317.81862
0.79776	1.35381E5	3316.81862
0.79256	1.35102E5	3315.81862
0.78741	1.34825E5	3314.81862
0.78231	1.34550E5	3313.81862
0.77725	1.34278E5	3312.81862
0.77224	1.34008E5	3311.81862
0.76727	1.33740E5	3310.81862
0.76235	1.33474E5	3309.81862
0.75747	1.33210E5	3308.81862
0.75264	1.32948E5	3307.81862
0.74784	1.32688E5	3306.81862
0.74310	1.32430E5	3305.81862
0.73839	1.32175E5	3304.81862
0.73372	1.31921E5	3303.81862
0.72910	1.31669E5	3302.81862
0.72451	1.31419E5	3301.81862
0.71997	1.31170E5	3300.81862
0.71547	1.30924E5	3299.81862
0.71100	1.30680E5	3298.81862
0.70658	1.30437E5	3297.81862
0.70219	1.30196E5	3296.81862
0.69784	1.29957E5	3295.81862
0.69353	1.29720E5	3294.81862
0.68925	1.29484E5	3293.81862
0.68501	1.29250E5	3292.81862
0.68081	1.29018E5	3291.81862
0.67665	1.28788E5	3290.81862
0.67252	1.28559E5	3289.81862
0.66842	1.28332E5	3288.81862
0.66436	1.28106E5	3287.81862
0.66033	1.27883E5	3286.81862
0.65634	1.27660E5	3285.81862
0.65238	1.27440E5	3284.81862
0.64846	1.27220E5	3283.81862
0.64456	1.27003E5	3282.81862
0.64070	1.26787E5	3281.81862
0.63688	1.26572E5	3280.81862
0.63308	1.26359E5	3279.81862
0.62932	1.26147E5	3278.81862
0.62558	1.25937E5	3277.81862
0.62188	1.25728E5	3276.81862
0.61821	1.25521E5	3275.81862
0.61457	1.25315E5	3274.81862
0.61096	1.25111E5	3273.81862
0.60737	1.24907E5	3272.81862
0.60382	1.24706E5	3271.81862
0.60030	1.24505E5	3270.81862
0.59680	1.24306E5	3269.81862
0.59333	1.24108E5	3268.81862
0.58989	1.23912E5	3267.81862
0.58648	1.23717E5	3266.81862
0.58310	1.23523E5	3265.81862
0.57974	1.23330E5	3264.81862
0.57641	1.23139E5	3263.81862
0.57311	1.22949E5	3262.81862
0.56983	1.22760E5	3261.81862
0.56658	1.22572E5	3260.81862
0.56335	1.22385E5	3259.81862
0.56015	1.22200E5	3258.81862
0.55698	1.22016E5	3257.81862
0.55383	1.21833E5	3256.81862
0.55071	1.21651E5	3255.81862
0.54761	1.21471E5	3254.81862
0.54453	1.21291E5	3253.81862
0.54148	1.21113E5	3252.81862
0.53845	1.20935E5	3251.81862
0.53544	1.20759E5	3250.81862
0.53246	1.20584E5	3249.81862
0.52950	1.20410E5	3248.81862
0.52657	1.20237E5	3247.81862
0.52366	1.20065E5	3246.81862
0.52077	1.19894E5	3245.81862
0.51790	1.19724E5	3244.81862
0.51505	1.19555E5	3243.81862
0.51223	1.19387E5	3242.81862
0.50942	1.19220E5	3241.81862
0.50664	1.19054E5	3240.81862
0.50388	1.18889E5	3239.81862
0.50114	1.18725E5	3238.81862
0.49842	1.18562E5	3237.81862
0.49572	1.18400E5	3236.81862
0.49304	1.18239E5	3235.81862
0.49038	1.18079E5	3234.81862
0.48774	1.17920E5	3233.81862
0.48513	1.17762E5	3232.81862
0.48253	1.17604E5	3231.81862
0.47995	1.17448E5	3230.81862
0.47739	1.17292E5	3229.81862
0.47484	1.17137E5	3228.81862
0.47232	1.16983E5	3227.81862
0.46982	1.16830E5	3226.81862
0.46733	1.16678E5	3225.81862
0.46486	1.16527E5	3224.81862
0.46241	1.16376E5	3223.81862
0.45998	1.16226E5	3222.81862
0.45756	1.16077E5	3221.81862
0.45517	1.15929E5	3220.81862
0.45279	1.15782E5	3219.81862
0.45043	1.15636E5	3218.81862
0.44808	1.15490E5	3217.81862
0.44575	1.15345E5	3216.81862
0.44344	1.15201E5	3215.81862
0.44115	1.15058E5	3214.81862
0.43887	1.14915E5	3213.81862
0.43660	1.14773E5	3212.81862
0.43436	1.14632E5	3211.81862
0.43213	1.14492E5	3210.81862
0.42991	1.14352E5	3209.81862
0.42772	1.14213E5	3208.81862
0.42553	1.14075E5	3207.81862
0.42336	1.13937E5	3206.81862
0.42121	1.13801E5	3205.81862
0.41908	1.13665E5	3204.81862
0.41695	1.13529E5	3203.81862
0.41485	1.13395E5	3202.81862
0.41275	1.13260E5	3201.81862
0.41068	1.13127E5	3200.81862
0.40861	1.12994E5	3199.81862
0.40656	1.12862E5	3198.81862
0.40453	1.12731E5	3197.81862
0.40251	1.12600E5	3196.81862
0.40050	1.12470E5	3195.81862
0.39851	1.12341E5	3194.81862
0.39653	1.12212E5	3193.81862
0.39456	1.12084E5	3192.81862
0.39261	1.11956E5	3191.81862
0.39067	1.11829E5	3190.81862
0.38874	1.11703E5	3189.81862
0.38683	1.11577E5	3188.81862
0.38493	1.11452E5	3187.81862
0.38304	1.11327E5	3186.81862
0.38117	1.11203E5	3185.81862
0.37931	1.11080E5	3184.81862
0.37746	1.10957E5	3183.81862
0.37562	1.10835E5	3182.81862
0.37380	1.10713E5	3181.81862
0.37199	1.10592E5	3180.81862
0.37019	1.10472E5	3179.81862
0.36840	1.10351E5	3178.81862
0.36662	1.10232E5	3177.81862
0.36486	1.10113E5	3176.81862
0.36311	1.09995E5	3175.81862
0.36136	1.09877E5	3174.81862
0.35964	1.09760E5	3173.81862
0.35792	1.09643E5	3172.81862
0.35621	1.09526E5	3171.81862
0.35452	1.09411E5	3170.81862
0.35283	1.09295E5	3169.81862
0.35116	1.09181E5	3168.81862
0.34950	1.09066E5	3167.81862
0.34784	1.08953E5	3166.81862
0.34620	1.08839E5	3165.81862
0.34457	1.08727E5	3164.81862
0.34295	1.08614E5	3163.81862
0.34134	1.08502E5	3162.81862
0.33975	1.08391E5	3161.81862
0.33816	1.08280E5	3160.81862
0.33658	1.08170E5	3159.81862
0.33501	1.08060E5	3158.81862
0.33345	1.07950E5	3157.81862
0.33190	1.07841E5	3156.81862
0.33037	1.07733E5	3155.81862
0.32884	1.07625E5	3154.81862
0.32732	1.07517E5	3153.81862
0.32581	1.07410E5	3152.81862
0.32431	1.07303E5	3151.81862
0.32282	1.07197E5	3150.81862
0.32134	1.07091E5	3149.81862
0.31987	1.06985E5	3148.81862
0.31841	1.06880E5	3147.81862
0.31695	1.06775E5	3146.81862
0.31551	1.06671E5	3145.81862
0.31407	1.06567E5	3144.81862
0.31265	1.06464E5	3143.81862
0.31123	1.06361E5	3142.81862
0.30982	1.06258E5	3141.81862
0.30842	1.06156E5	3140.81862
0.30703	1.06054E5	3139.81862
0.30565	1.05953E5	3138.81862
0.30428	1.05852E5	3137.81862
0.30291	1.05751E5	3136.81862
0.30156	1.05651E5	3135.81862
0.30021	1.05551E5	3134.81862
0.29887	1.05451E5	3133.81862
0.29753	1.05352E5	3132.81862
0.29621	1.05253E5	3131.81862
0.29489	1.05155E5	3130.81862
0.29359	1.05057E5	3129.81862
0.29229	1.04959E5	3128.81862
0.29100	1.04862E5	3127.81862
0.28971	1.04765E5	3126.81862
0.28843	1.04668E5	3125.81862
0.28717	1.04572E5	3124.81862
0.28590	1.04476E5	3123.81862
0.28465	1.04380E5	3122.81862
0.28341	1.04285E5	3121.81862
0.28217	1.04190E5	3120.81862
0.28094	1.04096E5	3119.81862
0.27971	1.04002E5	3118.81862
0.27850	1.03908E5	3117.81862
0.27729	1.03814E5	3116.81862
0.27608	1.03721E5	3115.81862
0.27489	1.03628E5	3114.81862
0.27370	1.03536E5	3113.81862
0.27252	1.03443E5	3112.81862
0.27135	1.03351E5	3111.81862
0.27018	1.03260E5	3110.81862
0.26902	1.03168E5	3109.81862
0.26787	1.03077E5	3108.81862
0.26672	1.02987E5	3107.81862
0.26558	1.02896E5	3106.81862
0.26445	1.02806E5	3105.81862
0.26332	1.02716E5	3104.81862
0.26220	1.02627E5	3103.81862
0.26108	1.02538E5	3102.81862
0.25998	1.02449E5	3101.81862
0.25888	1.02360E5	3100.81862
0.25778	1.02272E5	3099.81862
0.25669	1.02184E5	3098.81862
0.25561	1.02096E5	3097.81862
0.25454	1.02009E5	3096.81862
0.25347	1.01921E5	3095.81862
0.25240	1.01835E5	3094.81862
0.25135	1.01748E5	3093.81862
0.25029	1.01662E5	3092.81862
0.24925	1.01575E5	3091.81862
0.24821	1.01490E5	3090.81862
0.24718	1.01404E5	3089.81862
0.24615	1.01319E5	3088.81862
0.24513	1.01234E5	3087.81862
0.24411	1.01149E5	3086.81862
0.24310	1.01065E5	3085.81862
0.24210	1.00980E5	3084.81862
0.24110	1.00896E5	3083.81862
0.24010	1.00813E5	3082.81862
0.23911	1.00729E5	3081.81862
0.23813	1.00646E5	3080.81862
0.23716	1.00563E5	3079.81862
0.23618	1.00480E5	3078.81862
0.23522	1.00398E5	3077.81862
0.23426	1.00316E5	3076.81862
0.23330	1.00234E5	3075.81862
0.23235	1.00152E5	3074.81862
0.23141	1.00070E5	3073.81862
0.23047	99989.04717	3072.81862
0.22953	99908.00880	3071.81862
0.22860	99827.20395	3070.81862
0.22768	99746.63093	3069.81862
0.22676	99666.28810	3068.81862
0.22585	99586.17381	3067.81862
0.22494	99506.28644	3066.81862
0.22403	99426.62438	3065.81862
0.22313	99347.18603	3064.81862
0.22224	99267.96981	3063.81862
0.22135	99188.97415	3062.81862
0.22046	99110.19749	3061.81862
0.21958	99031.63830	3060.81862
0.21871	98953.29505	3059.81862
0.21784	98875.16623	3058.81862
0.21697	98797.25032	3057.81862
0.21611	98719.54586	3056.81862
0.21525	98642.05135	3055.81862
0.21440	98564.76535	3054.81862
0.21355	98487.68639	3053.81862
0.21271	98410.81306	3052.81862
0.21187	98334.14391	3051.81862
0.21104	98257.67754	3050.81862
0.21021	98181.41256	3049.81862
0.20938	98105.34757	3048.81862
0.20856	98029.48119	3047.81862
0.20775	97953.81207	3046.81862
0.20694	97878.33886	3045.81862
0.20613	97803.06021	3044.81862
0.20532	97727.97479	3043.81862
0.20452	97653.08129	3042.81862
0.20373	97578.37840	3041.81862
0.20294	97503.86483	3040.81862
0.20215	97429.53930	3039.81862
0.20137	97355.40052	3038.81862
0.20059	97281.44725	3037.81862
0.19981	97207.67822	3036.81862
0.19904	97134.09220	3035.81862
0.19828	97060.68795	3034.81862
0.19751	96987.46427	3033.81862
0.19676	96914.41993	3032.81862
0.19600	96841.55374	3031.81862
0.19525	96768.86451	3030.81862
0.19450	96696.35106	3029.81862
0.19376	96624.01222	3028.81862
0.19302	96551.84684	3027.81862
0.19228	96479.85375	3026.81862
0.19155	96408.03183	3025.81862
0.19082	96336.37994	3024.81862
0.19010	96264.89695	3023.81862
0.18938	96193.58177	3022.81862
0.18866	96122.43328	3021.81862
0.18795	96051.45039	3020.81862
0.18724	95980.63202	3019.81862
0.18653	95909.97709	3018.81862
0.18583	95839.48454	3017.81862
0.18513	95769.15330	3016.81862
0.18443	95698.98233	3015.81862
0.18374	95628.97058	3014.81862
0.18305	95559.11703	3013.81862
0.18237	95489.42065	3012.81862
0.18169	95419.88043	3011.81862
0.18101	95350.49535	3010.81862
0.18033	95281.26443	3009.81862
0.17966	95212.18666	3008.81862
0.17899	95143.26108	3007.81862
0.17833	95074.48669	3006.81862
0.17767	95005.86254	3005.81862
0.17701	94937.38766	3004.81862
0.17635	94869.06112	3003.81862
0.17570	94800.88195	3002.81862
0.17505	94732.84923	3001.81862
0.17441	94664.96202	3000.81862
0.17376	94597.21942	2999.81862
0.17313	94529.62050	2998.81862
0.17249	94462.16435	2997.81862
0.17186	94394.85008	2996.81862
0.17123	94327.67680	2995.81862
0.17060	94260.64363	2994.81862
0.16998	94193.74967	2993.81862
0.16936	94126.99407	2992.81862
0.16874	94060.37596	2991.81862
0.16812	93993.89449	2990.81862
0.16751	93927.54879	2989.81862
0.16690	93861.33804	2988.81862
0.16630	93795.26139	2987.81862
0.16569	93729.31802	2986.81862
0.16509	93663.50709	2985.81862
0.16450	93597.82780	2984.81862
0.16390	93532.27933	2983.81862
0.16331	93466.86087	2982.81862
0.16272	93401.57164	2981.81862
0.16214	93336.41084	2980.81862
0.16155	93271.37767	2979.81862
0.16097	93206.47138	2978.81862
0.16040	93141.69117	2977.81862
0.15982	93077.03628	2976.81862
0.15925	93012.50596	2975.81862
0.15868	92948.09944	2974.81862
0.15811	92883.81598	2973.81862
0.15755	92819.65483	2972.81862
0.15699	92755.61525	2971.81862
0.15643	92691.69652	2970.81862
0.15587	92627.89790	2969.81862
0.15532	92564.21868	2968.81862
0.15477	92500.65813	2967.81862
0.15422	92437.21556	2966.81862
0.15367	92373.89025	2965.81862
0.15313	92310.68150	2964.81862
0.15259	92247.58862	2963.81862
0.15205	92184.61093	2962.81862
0.15152	92121.74773	2961.81862
0.15098	92058.99835	2960.81862
0.15045	91996.36212	2959.81862
0.14993	91933.83838	2958.81862
0.14940	91871.42644	2957.81862
0.14888	91809.12567	2956.81862
0.14836	91746.93540	2955.81862
0.14784	91684.85499	2954.81862
0.14732	91622.88379	2953.81862
0.14681	91561.02117	2952.81862
0.14630	91499.26650	2951.81862
0.14579	91437.61914	2950.81862
0.14528	91376.07846	2949.81862
0.14477	91314.64386	2948.81862
0.14427	91253.31472	2947.81862
0.14377	91192.09042	2946.81862
0.14328	91130.97036	2945.81862
0.14278	91069.95395	2944.81862
0.14229	91009.04057	2943.81862
0.14180	90948.22965	2942.81862
0.14131	90887.52059	2941.81862
0.14082	90826.91281	2940.81862
0.14034	90766.40573	2939.81862
0.13985	90705.99877	2938.81862
0.13937	90645.69137	2937.81862
0.13890	90585.48296	2936.81862
0.13842	90525.37298	2935.81862
0.13795	90465.36086	2934.81862
0.13748	90405.44606	2933.81862
0.13701	90345.62803	2932.81862
0.13654	90285.90621	2931.81862
0.13607	90226.28007	2930.81862
0.13561	90166.74907	2929.81862
0.13515	90107.31268	2928.81862
0.13469	90047.97036	2927.81862
0.13423	89988.72159	2926.81862
0.13378	89929.56584	2925.81862
0.13333	89870.50260	2924.81862
0.13288	89811.53136	2923.81862
0.13243	89752.65159	2922.81862
0.13198	89693.86280	2921.81862
0.13154	89635.16448	2920.81862
0.13109	89576.55613	2919.81862
0.13065	89518.03725	2918.81862
0.13021	89459.60735	2917.81862
0.12977	89401.26594	2916.81862
0.12934	89343.01254	2915.81862
0.12891	89284.84666	2914.81862
0.12847	89226.76782	2913.81862
0.12804	89168.77554	2912.81862
0.12762	89110.86937	2911.81862
0.12719	89053.04882	2910.81862
0.12677	88995.31342	2909.81862
0.12634	88937.66273	2908.81862
0.12592	88880.09628	2907.81862
0.12550	88822.61361	2906.81862
0.12509	88765.21427	2905.81862
0.12467	88707.89781	2904.81862
0.12426	88650.66378	2903.81862
0.12385	88593.51175	2902.81862
0.12344	88536.44127	2901.81862
0.12303	88479.45191	2900.81862
0.12262	88422.54323	2899.81862
0.12222	88365.71480	2898.81862
0.12182	88308.96619	2897.81862
0.12141	88252.29698	2896.81862
0.12101	88195.70675	2895.81862
0.12062	88139.19508	2894.81862
0.12022	88082.76155	2893.81862
0.11983	88026.40575	2892.81862
0.11943	87970.12727	2891.81862
0.11904	87913.92570	2890.81862
0.11865	87857.80063	2889.81862
0.11826	87801.75168	2888.81862
0.11788	87745.77843	2887.81862
0.11749	87689.88049	2886.81862
0.11711	87634.05747	2885.81862
0.11673	87578.30897	2884.81862
0.11635	87522.63462	2883.81862
0.11597	87467.03401	2882.81862
0.11559	87411.50678	2881.81862
0.11522	87356.05254	2880.81862
0.11485	87300.67092	2879.81862
0.11447	87245.36153	2878.81862
0.11410	87190.12401	2877.81862
0.11373	87134.95798	2876.81862
0.11337	87079.86308	2875.81862
0.11300	87024.83895	2874.81862
0.11264	86969.88522	2873.81862
0.11227	86915.00154	2872.81862
0.11191	86860.18753	2871.81862
0.11155	86805.44286	2870.81862
0.11119	86750.76717	2869.81862
0.11084	86696.16010	2868.81862
0.11048	86641.62131	2867.81862
0.11013	86587.15046	2866.81862
0.10977	86532.74719	2865.81862
0.10942	86478.41118	2864.81862
0.10907	86424.14208	2863.81862
0.10872	86369.93955	2862.81862
0.10838	86315.80327	2861.81862
0.10803	86261.73289	2860.81862
0.10769	86207.72809	2859.81862
0.10735	86153.78855	2858.81862
0.10700	86099.91393	2857.81862
0.10666	86046.10392	2856.81862
0.10633	85992.35819	2855.81862
0.10599	85938.67643	2854.81862
0.10565	85885.05831	2853.81862
0.10532	85831.50352	2852.81862
0.10498	85778.01176	2851.81862
0.10465	85724.58271	2850.81862
0.10432	85671.21606	2849.81862
0.10399	85617.91150	2848.81862
0.10366	85564.66874	2847.81862
0.10334	85511.48746	2846.81862
0.10301	85458.36738	2845.81862
0.10269	85405.30818	2844.81862
0.10236	85352.30958	2843.81862
0.10204	85299.37128	2842.81862
0.10172	85246.49298	2841.81862
0.10140	85193.67440	2840.81862
0.10109	85140.91525	2839.81862
0.10077	85088.21524	2838.81862
0.10045	85035.57408	2837.81862
0.10014	84982.99150	2836.81862
0.09983	84930.46721	2835.81862
0.09952	84878.00093	2834.81862
0.09920	84825.59238	2833.81862
0.09890	84773.24129	2832.81862
0.09859	84720.94739	2831.81862
0.09828	84668.71040	2830.81862
0.09797	84616.53005	2829.81862
0.09767	84564.40607	2828.81862
0.09737	84512.33820	2827.81862
0.09707	84460.32616	2826.81862
0.09676	84408.36971	2825.81862
0.09646	84356.46857	2824.81862
0.09617	84304.62248	2823.81862
0.09587	84252.83118	2822.81862
0.09557	84201.09443	2821.81862
0.09528	84149.41196	2820.81862
0.09498	84097.78352	2819.81862
0.09469	84046.20885	2818.81862
0.09440	83994.68771	2817.81862
0.09411	83943.21985	2816.81862
0.09382	83891.80502	2815.81862
0.09353	83840.44297	2814.81862
0.09324	83789.13347	2813.81862
0.09296	83737.87626	2812.81862
0.09267	83686.67110	2811.81862
0.09239	83635.51777	2810.81862
0.09210	83584.41601	2809.81862
0.09182	83533.36560	2808.81862
0.09154	83482.36629	2807.81862
0.09126	83431.41785	2806.81862
0.09098	83380.52006	2805.81862
0.09070	83329.67268	2804.81862
0.09043	83278.87547	2803.81862
0.09015	83228.12822	2802.81862
0.08988	83177.43070	2801.81862
0.08960	83126.78268	2800.81862
0.08933	83076.18393	2799.81862
0.08906	83025.63424	2798.81862
0.08879	82975.13339	2797.81862
0.08852	82924.68115	2796.81862
0.08825	82874.27731	2795.81862
0.08798	82823.92165	2794.81862
0.08771	82773.61395	2793.81862
0.08745	82723.35401	2792.81862
0.08718	82673.14160	2791.81862
0.08692	82622.97652	2790.81862
0.08666	82572.85856	2789.81862
0.08640	82522.78750	2788.81862
0.08614	82472.76314	2787.81862
0.08588	82422.78528	2786.81862
0.08562	82372.85370	2785.81862
0.08536	82322.96821	2784.81862
0.08510	82273.12860	2783.81862
0.08485	82223.33467	2782.81862
0.08459	82173.58622	2781.81862
0.08434	82123.88305	2780.81862
0.08408	82074.22497	2779.81862
0.08383	82024.61178	2778.81862
0.08358	81975.04327	2777.81862
0.08333	81925.51927	2776.81862
0.08308	81876.03957	2775.81862
0.08283	81826.60398	2774.81862
0.08258	81777.21232	2773.81862
0.08233	81727.86439	2772.81862
0.08209	81678.56000	2771.81862
0.08184	81629.29897	2770.81862
0.08160	81580.08112	2769.81862
0.08136	81530.90625	2768.81862
0.08111	81481.77418	2767.81862
0.08087	81432.68474	2766.81862
0.08063	81383.63773	2765.81862
0.08039	81334.63298	2764.81862
0.08015	81285.67031	2763.81862
0.07991	81236.74954	2762.81862
0.07968	81187.87050	2761.81862
0.07944	81139.03300	2760.81862
0.07920	81090.23687	2759.81862
0.07897	81041.48194	2758.81862
0.07873	80992.76803	2757.81862
0.07850	80944.09498	2756.81862
0.07827	80895.46261	2755.81862
0.07804	80846.87075	2754.81862
0.07781	80798.31923	2753.81862
0.07758	80749.80788	2752.81862
0.07735	80701.33655	2751.81862
0.07712	80652.90505	2750.81862
0.07689	80604.51323	2749.81862
0.07666	80556.16092	2748.81862
0.07644	80507.84796	2747.81862
0.07621	80459.57419	2746.81862
0.07599	80411.33944	2745.81862
0.07576	80363.14355	2744.81862
0.07554	80314.98637	2743.81862
0.07532	80266.86774	2742.81862
0.07510	80218.78750	2741.81862
0.07488	80170.74549	2740.81862
0.07466	80122.74156	2739.81862
0.07444	80074.77555	2738.81862
0.07422	80026.84731	2737.81862
0.07400	79978.95668	2736.81862
0.07379	79931.10352	2735.81862
0.07357	79883.28767	2734.81862
0.07335	79835.50898	2733.81862
0.07314	79787.76731	2732.81862
0.07293	79740.06250	2731.81862
0.07271	79692.39440	2730.81862
0.07250	79644.76288	2729.81862
0.07229	79597.16777	2728.81862
0.07208	79549.60895	2727.81862
0.07187	79502.08626	2726.81862
0.07166	79454.59956	2725.81862
0.07145	79407.14871	2724.81862
0.07124	79359.73356	2723.81862
0.07103	79312.35398	2722.81862
0.07083	79265.00982	2721.81862
0.07062	79217.70095	2720.81862
0.07042	79170.42722	2719.81862
0.07021	79123.18850	2718.81862
0.07001	79075.98465	2717.81862
0.06980	79028.81554	2716.81862
0.06960	78981.68103	2715.81862
0.06940	78934.58098	2714.81862
0.06920	78887.51526	2713.81862
0.06900	78840.48374	2712.81862
0.06880	78793.48629	2711.81862
0.06860	78746.52277	2710.81862
0.06840	78699.59305	2709.81862
0.06820	78652.69700	2708.81862
0.06800	78605.83450	2707.81862
0.06781	78559.00540	2706.81862
0.06761	78512.20960	2705.81862
0.06742	78465.44695	2704.81862
0.06722	78418.71734	2703.81862
0.06703	78372.02063	2702.81862
0.06683	78325.35670	2701.81862
0.06664	78278.72542	2700.81862
0.06645	78232.12668	2699.81862
0.06626	78185.56035	2698.81862
0.06607	78139.02631	2697.81862
0.06588	78092.52443	2696.81862
0.06569	78046.05459	2695.81862
0.06550	77999.61668	2694.81862
0.06531	77953.21058	2693.81862
0.06512	77906.83615	2692.81862
0.06493	77860.49330	2691.81862
0.06475	77814.18189	2690.81862
