Mole fraction of liquid	Heat per mole [J]	Temperature [K]
1.00000	1.50931E5	3412.65193
0.99995	1.50924E5	3412.55631
0.99100	1.50461E5	3411.55631
0.98215	1.50003E5	3410.55631
0.97342	1.49550E5	3409.55631
0.96479	1.49103E5	3408.55631
0.95627	1.48660E5	3407.55631
0.94786	1.48223E5	3406.55631
0.93955	1.47790E5	3405.55631
0.93134	1.47363E5	3404.55631
0.92323	1.46940E5	3403.55631
0.91521	1.46522E5	3402.55631
0.90730	1.46108E5	3401.55631
0.89947	1.45699E5	3400.55631
0.89175	1.45295E5	3399.55631
0.88411	1.44895E5	3398.55631
0.87657	1.44499E5	3397.55631
0.86911	1.44108E5	3396.55631
0.86174	1.43721E5	3395.55631
0.85446	1.43338E5	3394.55631
0.84727	1.42959E5	3393.55631
0.84016	1.42584E5	3392.55631
0.83313	1.42213E5	3391.55631
0.82618	1.41846E5	3390.55631
0.81931	1.41483E5	3389.55631
0.81253	1.41123E5	3388.55631
0.80582	1.40768E5	3387.55631
0.79919	1.40416E5	3386.55631
0.79263	1.40067E5	3385.55631
0.78615	1.39723E5	3384.55631
0.77974	1.39381E5	3383.55631
0.77340	1.39043E5	3382.55631
0.76714	1.38709E5	3381.55631
0.76094	1.38378E5	3380.55631
0.75482	1.38050E5	3379.55631
0.74876	1.37726E5	3378.55631
0.74277	1.37404E5	3377.55631
0.73685	1.37086E5	3376.55631
0.73100	1.36771E5	3375.55631
0.72520	1.36459E5	3374.55631
0.71948	1.36151E5	3373.55631
0.71381	1.35845E5	3372.55631
0.70821	1.35542E5	3371.55631
0.70266	1.35242E5	3370.55631
0.69718	1.34944E5	3369.55631
0.69176	1.34650E5	3368.55631
0.68639	1.34358E5	3367.55631
0.68108	1.34070E5	3366.55631
0.67583	1.33783E5	3365.55631
0.67064	1.33500E5	3364.55631
0.66550	1.33219E5	3363.55631
0.66042	1.32941E5	3362.55631
0.65539	1.32665E5	3361.55631
0.65041	1.32392E5	3360.55631
0.64549	1.32121E5	3359.55631
0.64061	1.31853E5	3358.55631
0.63579	1.31587E5	3357.55631
0.63102	1.31324E5	3356.55631
0.62630	1.31063E5	3355.55631
0.62162	1.30804E5	3354.55631
0.61700	1.30548E5	3353.55631
0.61242	1.30293E5	3352.55631
0.60789	1.30042E5	3351.55631
0.60341	1.29792E5	3350.55631
0.59897	1.29544E5	3349.55631
0.59458	1.29299E5	3348.55631
0.59023	1.29055E5	3347.55631
0.58593	1.28814E5	3346.55631
0.58167	1.28575E5	3345.55631
0.57745	1.28338E5	3344.55631
0.57327	1.28103E5	3343.55631
0.56914	1.27869E5	3342.55631
0.56505	1.27638E5	3341.55631
0.56100	1.27409E5	3340.55631
0.55699	1.27181E5	3339.55631
0.55302	1.26956E5	3338.55631
0.54908	1.26732E5	3337.55631
0.54519	1.26510E5	3336.55631
0.54134	1.26290E5	3335.55631
0.53752	1.26072E5	3334.55631
0.53374	1.25855E5	3333.55631
0.53000	1.25641E5	3332.55631
0.52629	1.25428E5	3331.55631
0.52262	1.25216E5	3330.55631
0.51898	1.25006E5	3329.55631
0.51538	1.24798E5	3328.55631
0.51182	1.24592E5	3327.55631
0.50828	1.24387E5	3326.55631
0.50479	1.24184E5	3325.55631
0.50132	1.23982E5	3324.55631
0.49789	1.23782E5	3323.55631
0.49449	1.23584E5	3322.55631
0.49112	1.23387E5	3321.55631
0.48779	1.23191E5	3320.55631
0.48448	1.22997E5	3319.55631
0.48121	1.22804E5	3318.55631
0.47797	1.22613E5	3317.55631
0.47476	1.22423E5	3316.55631
0.47157	1.22235E5	3315.55631
0.46842	1.22048E5	3314.55631
0.46530	1.21862E5	3313.55631
0.46220	1.21678E5	3312.55631
0.45914	1.21495E5	3311.55631
0.45610	1.21313E5	3310.55631
0.45309	1.21133E5	3309.55631
0.45011	1.20954E5	3308.55631
0.44715	1.20776E5	3307.55631
0.44422	1.20600E5	3306.55631
0.44132	1.20424E5	3305.55631
0.43844	1.20250E5	3304.55631
0.43559	1.20078E5	3303.55631
0.43277	1.19906E5	3302.55631
0.42997	1.19736E5	3301.55631
0.42719	1.19566E5	3300.55631
0.42444	1.19398E5	3299.55631
0.42172	1.19231E5	3298.55631
0.41902	1.19065E5	3297.55631
0.41634	1.18901E5	3296.55631
0.41369	1.18737E5	3295.55631
0.41106	1.18575E5	3294.55631
0.40845	1.18413E5	3293.55631
0.40587	1.18253E5	3292.55631
0.40330	1.18094E5	3291.55631
0.40077	1.17935E5	3290.55631
0.39825	1.17778E5	3289.55631
0.39575	1.17622E5	3288.55631
0.39328	1.17467E5	3287.55631
0.39083	1.17313E5	3286.55631
0.38840	1.17159E5	3285.55631
0.38599	1.17007E5	3284.55631
0.38360	1.16856E5	3283.55631
0.38123	1.16706E5	3282.55631
0.37888	1.16556E5	3281.55631
0.37655	1.16408E5	3280.55631
0.37424	1.16260E5	3279.55631
0.37195	1.16114E5	3278.55631
0.36968	1.15968E5	3277.55631
0.36743	1.15823E5	3276.55631
0.36520	1.15679E5	3275.55631
0.36298	1.15536E5	3274.55631
0.36079	1.15394E5	3273.55631
0.35861	1.15253E5	3272.55631
0.35645	1.15112E5	3271.55631
0.35431	1.14972E5	3270.55631
0.35219	1.14834E5	3269.55631
0.35008	1.14695E5	3268.55631
0.34799	1.14558E5	3267.55631
0.34592	1.14422E5	3266.55631
0.34387	1.14286E5	3265.55631
0.34183	1.14151E5	3264.55631
0.33981	1.14017E5	3263.55631
0.33781	1.13884E5	3262.55631
0.33582	1.13751E5	3261.55631
0.33385	1.13620E5	3260.55631
0.33189	1.13489E5	3259.55631
0.32995	1.13358E5	3258.55631
0.32803	1.13229E5	3257.55631
0.32612	1.13100E5	3256.55631
0.32422	1.12972E5	3255.55631
0.32235	1.12844E5	3254.55631
0.32048	1.12717E5	3253.55631
0.31863	1.12591E5	3252.55631
0.31680	1.12466E5	3251.55631
0.31498	1.12341E5	3250.55631
0.31317	1.12217E5	3249.55631
0.31138	1.12094E5	3248.55631
0.30961	1.11971E5	3247.55631
0.30784	1.11849E5	3246.55631
0.30610	1.11728E5	3245.55631
0.30436	1.11607E5	3244.55631
0.30264	1.11487E5	3243.55631
0.30093	1.11367E5	3242.55631
0.29924	1.11248E5	3241.55631
0.29755	1.11130E5	3240.55631
0.29588	1.11012E5	3239.55631
0.29423	1.10895E5	3238.55631
0.29258	1.10778E5	3237.55631
0.29095	1.10662E5	3236.55631
0.28934	1.10547E5	3235.55631
0.28773	1.10432E5	3234.55631
0.28614	1.10318E5	3233.55631
0.28456	1.10204E5	3232.55631
0.28299	1.10091E5	3231.55631
0.28143	1.09978E5	3230.55631
0.27988	1.09866E5	3229.55631
0.27835	1.09755E5	3228.55631
0.27683	1.09644E5	3227.55631
0.27531	1.09534E5	3226.55631
0.27381	1.09424E5	3225.55631
0.27233	1.09314E5	3224.55631
0.27085	1.09205E5	3223.55631
0.26938	1.09097E5	3222.55631
0.26793	1.08989E5	3221.55631
0.26648	1.08882E5	3220.55631
0.26505	1.08775E5	3219.55631
0.26362	1.08669E5	3218.55631
0.26221	1.08563E5	3217.55631
0.26081	1.08457E5	3216.55631
0.25942	1.08352E5	3215.55631
0.25803	1.08248E5	3214.55631
0.25666	1.08144E5	3213.55631
0.25530	1.08040E5	3212.55631
0.25395	1.07937E5	3211.55631
0.25261	1.07835E5	3210.55631
0.25127	1.07733E5	3209.55631
0.24995	1.07631E5	3208.55631
0.24864	1.07530E5	3207.55631
0.24733	1.07429E5	3206.55631
0.24604	1.07328E5	3205.55631
0.24475	1.07228E5	3204.55631
0.24348	1.07129E5	3203.55631
0.24221	1.07030E5	3202.55631
0.24095	1.06931E5	3201.55631
0.23970	1.06833E5	3200.55631
0.23846	1.06735E5	3199.55631
0.23723	1.06637E5	3198.55631
0.23601	1.06540E5	3197.55631
0.23480	1.06443E5	3196.55631
0.23359	1.06347E5	3195.55631
0.23239	1.06251E5	3194.55631
0.23120	1.06156E5	3193.55631
0.23002	1.06061E5	3192.55631
0.22885	1.05966E5	3191.55631
0.22769	1.05871E5	3190.55631
0.22653	1.05777E5	3189.55631
0.22538	1.05684E5	3188.55631
0.22424	1.05590E5	3187.55631
0.22311	1.05498E5	3186.55631
0.22199	1.05405E5	3185.55631
0.22087	1.05313E5	3184.55631
0.21976	1.05221E5	3183.55631
0.21866	1.05130E5	3182.55631
0.21757	1.05038E5	3181.55631
0.21648	1.04948E5	3180.55631
0.21540	1.04857E5	3179.55631
0.21433	1.04767E5	3178.55631
0.21327	1.04677E5	3177.55631
0.21221	1.04588E5	3176.55631
0.21116	1.04499E5	3175.55631
0.21012	1.04410E5	3174.55631
0.20908	1.04321E5	3173.55631
0.20806	1.04233E5	3172.55631
0.20703	1.04145E5	3171.55631
0.20602	1.04058E5	3170.55631
0.20501	1.03971E5	3169.55631
0.20401	1.03884E5	3168.55631
0.20301	1.03797E5	3167.55631
0.20203	1.03711E5	3166.55631
0.20104	1.03625E5	3165.55631
0.20007	1.03539E5	3164.55631
0.19910	1.03454E5	3163.55631
0.19814	1.03369E5	3162.55631
0.19718	1.03284E5	3161.55631
0.19623	1.03200E5	3160.55631
0.19529	1.03115E5	3159.55631
0.19435	1.03031E5	3158.55631
0.19342	1.02948E5	3157.55631
0.19250	1.02864E5	3156.55631
0.19158	1.02781E5	3155.55631
0.19066	1.02699E5	3154.55631
0.18976	1.02616E5	3153.55631
0.18886	1.02534E5	3152.55631
0.18796	1.02452E5	3151.55631
0.18707	1.02370E5	3150.55631
0.18619	1.02289E5	3149.55631
0.18531	1.02207E5	3148.55631
0.18444	1.02126E5	3147.55631
0.18357	1.02046E5	3146.55631
0.18271	1.01965E5	3145.55631
0.18185	1.01885E5	3144.55631
0.18100	1.01805E5	3143.55631
0.18016	1.01725E5	3142.55631
0.17932	1.01646E5	3141.55631
0.17848	1.01567E5	3140.55631
0.17765	1.01488E5	3139.55631
0.17683	1.01409E5	3138.55631
0.17601	1.01331E5	3137.55631
0.17520	1.01252E5	3136.55631
0.17439	1.01174E5	3135.55631
0.17358	1.01097E5	3134.55631
0.17279	1.01019E5	3133.55631
0.17199	1.00942E5	3132.55631
0.17120	1.00865E5	3131.55631
0.17042	1.00788E5	3130.55631
0.16964	1.00711E5	3129.55631
0.16887	1.00635E5	3128.55631
0.16810	1.00559E5	3127.55631
0.16733	1.00483E5	3126.55631
0.16657	1.00407E5	3125.55631
0.16582	1.00331E5	3124.55631
0.16507	1.00256E5	3123.55631
0.16432	1.00181E5	3122.55631
0.16358	1.00106E5	3121.55631
0.16285	1.00031E5	3120.55631
0.16211	99957.00545	3119.55631
0.16139	99882.73271	3118.55631
0.16066	99808.66389	3117.55631
0.15994	99734.79740	3116.55631
0.15923	99661.13169	3115.55631
0.15852	99587.66519	3114.55631
0.15781	99514.39638	3113.55631
0.15711	99441.32373	3112.55631
0.15641	99368.44573	3111.55631
0.15572	99295.76090	3110.55631
0.15503	99223.26775	3109.55631
0.15434	99150.96482	3108.55631
0.15366	99078.85066	3107.55631
0.15299	99006.92384	3106.55631
0.15231	98935.18294	3105.55631
0.15165	98863.62654	3104.55631
0.15098	98792.25325	3103.55631
0.15032	98721.06170	3102.55631
0.14966	98650.05050	3101.55631
0.14901	98579.21832	3100.55631
0.14836	98508.56380	3099.55631
0.14771	98438.08561	3098.55631
0.14707	98367.78245	3097.55631
0.14643	98297.65300	3096.55631
0.14580	98227.69597	3095.55631
0.14517	98157.91008	3094.55631
0.14454	98088.29406	3093.55631
0.14392	98018.84666	3092.55631
0.14330	97949.56664	3091.55631
0.14268	97880.45276	3090.55631
0.14207	97811.50379	3089.55631
0.14146	97742.71853	3088.55631
0.14086	97674.09579	3087.55631
0.14025	97605.63437	3086.55631
0.13965	97537.33309	3085.55631
0.13906	97469.19079	3084.55631
0.13847	97401.20632	3083.55631
0.13788	97333.37854	3082.55631
0.13729	97265.70630	3081.55631
0.13671	97198.18848	3080.55631
0.13613	97130.82398	3079.55631
0.13556	97063.61168	3078.55631
0.13499	96996.55051	3077.55631
0.13442	96929.63936	3076.55631
0.13385	96862.87718	3075.55631
0.13329	96796.26290	3074.55631
0.13273	96729.79546	3073.55631
0.13218	96663.47382	3072.55631
0.13162	96597.29695	3071.55631
0.13107	96531.26382	3070.55631
0.13053	96465.37342	3069.55631
0.12998	96399.62473	3068.55631
0.12944	96334.01677	3067.55631
0.12891	96268.54855	3066.55631
0.12837	96203.21907	3065.55631
0.12784	96138.02738	3064.55631
0.12731	96072.97251	3063.55631
0.12679	96008.05351	3062.55631
0.12626	95943.26943	3061.55631
0.12574	95878.61934	3060.55631
0.12523	95814.10230	3059.55631
0.12471	95749.71740	3058.55631
0.12420	95685.46373	3057.55631
0.12369	95621.34038	3056.55631
0.12319	95557.34645	3055.55631
0.12268	95493.48106	3054.55631
0.12218	95429.74333	3053.55631
0.12169	95366.13238	3052.55631
0.12119	95302.64736	3051.55631
0.12070	95239.28740	3050.55631
0.12021	95176.05165	3049.55631
0.11972	95112.93927	3048.55631
0.11924	95049.94943	3047.55631
0.11876	94987.08129	3046.55631
0.11828	94924.33405	3045.55631
0.11780	94861.70688	3044.55631
0.11733	94799.19897	3043.55631
0.11686	94736.80954	3042.55631
0.11639	94674.53779	3041.55631
0.11592	94612.38292	3040.55631
0.11546	94550.34417	3039.55631
0.11499	94488.42076	3038.55631
0.11454	94426.61192	3037.55631
0.11408	94364.91690	3036.55631
0.11363	94303.33494	3035.55631
0.11317	94241.86530	3034.55631
0.11272	94180.50724	3033.55631
0.11228	94119.26003	3032.55631
0.11183	94058.12293	3031.55631
0.11139	93997.09523	3030.55631
0.11095	93936.17621	3029.55631
0.11051	93875.36516	3028.55631
0.11008	93814.66139	3027.55631
0.10964	93754.06419	3026.55631
0.10921	93693.57287	3025.55631
0.10879	93633.18675	3024.55631
0.10836	93572.90515	3023.55631
0.10793	93512.72740	3022.55631
0.10751	93452.65282	3021.55631
0.10709	93392.68075	3020.55631
0.10668	93332.81055	3019.55631
0.10626	93273.04155	3018.55631
0.10585	93213.37311	3017.55631
0.10544	93153.80459	3016.55631
0.10503	93094.33536	3015.55631
0.10462	93034.96478	3014.55631
0.10421	92975.69223	3013.55631
0.10381	92916.51709	3012.55631
0.10341	92857.43875	3011.55631
0.10301	92798.45660	3010.55631
0.10262	92739.57002	3009.55631
0.10222	92680.77843	3008.55631
0.10183	92622.08123	3007.55631
0.10144	92563.47782	3006.55631
0.10105	92504.96763	3005.55631
0.10066	92446.55008	3004.55631
0.10028	92388.22458	3003.55631
0.09989	92329.99057	3002.55631
0.09951	92271.84748	3001.55631
0.09913	92213.79475	3000.55631
0.09876	92155.83183	2999.55631
0.09838	92097.95816	2998.55631
0.09801	92040.17319	2997.55631
0.09764	91982.47638	2996.55631
0.09727	91924.86719	2995.55631
0.09690	91867.34508	2994.55631
0.09653	91809.90954	2993.55631
0.09617	91752.56002	2992.55631
0.09581	91695.29601	2991.55631
0.09545	91638.11699	2990.55631
0.09509	91581.02245	2989.55631
0.09473	91524.01187	2988.55631
0.09438	91467.08476	2987.55631
0.09402	91410.24060	2986.55631
0.09367	91353.47891	2985.55631
0.09332	91296.79919	2984.55631
0.09297	91240.20095	2983.55631
0.09263	91183.68370	2982.55631
0.09228	91127.24696	2981.55631
0.09194	91070.89025	2980.55631
0.09160	91014.61311	2979.55631
0.09126	90958.41505	2978.55631
0.09092	90902.29562	2977.55631
0.09058	90846.25434	2976.55631
0.09025	90790.29076	2975.55631
0.08991	90734.40443	2974.55631
0.08958	90678.59489	2973.55631
0.08925	90622.86169	2972.55631
0.08892	90567.20438	2971.55631
0.08859	90511.62253	2970.55631
0.08827	90456.11570	2969.55631
0.08794	90400.68344	2968.55631
0.08762	90345.32534	2967.55631
0.08730	90290.04095	2966.55631
0.08698	90234.82986	2965.55631
0.08666	90179.69164	2964.55631
0.08635	90124.62588	2963.55631
0.08603	90069.63216	2962.55631
0.08572	90014.71007	2961.55631
0.08541	89959.85919	2960.55631
0.08510	89905.07913	2959.55631
0.08479	89850.36947	2958.55631
0.08448	89795.72983	2957.55631
0.08418	89741.15980	2956.55631
0.08387	89686.65899	2955.55631
0.08357	89632.22701	2954.55631
0.08327	89577.86346	2953.55631
0.08297	89523.56798	2952.55631
0.08267	89469.34017	2951.55631
0.08237	89415.17966	2950.55631
0.08207	89361.08606	2949.55631
0.08178	89307.05901	2948.55631
0.08148	89253.09814	2947.55631
0.08119	89199.20308	2946.55631
0.08090	89145.37346	2945.55631
0.08061	89091.60892	2944.55631
0.08032	89037.90910	2943.55631
0.08004	88984.27365	2942.55631
0.07975	88930.70221	2941.55631
0.07947	88877.19443	2940.55631
0.07919	88823.74995	2939.55631
0.07890	88770.36845	2938.55631
0.07862	88717.04956	2937.55631
0.07835	88663.79295	2936.55631
0.07807	88610.59829	2935.55631
0.07779	88557.46522	2934.55631
0.07752	88504.39343	2933.55631
0.07724	88451.38258	2932.55631
0.07697	88398.43234	2931.55631
0.07670	88345.54239	2930.55631
0.07643	88292.71239	2929.55631
0.07616	88239.94204	2928.55631
0.07589	88187.23101	2927.55631
0.07563	88134.57897	2926.55631
0.07536	88081.98563	2925.55631
0.07510	88029.45067	2924.55631
0.07483	87976.97377	2923.55631
0.07457	87924.55463	2922.55631
0.07431	87872.19294	2921.55631
0.07405	87819.88840	2920.55631
0.07379	87767.64071	2919.55631
0.07354	87715.44958	2918.55631
0.07328	87663.31469	2917.55631
0.07303	87611.23577	2916.55631
0.07277	87559.21251	2915.55631
0.07252	87507.24462	2914.55631
0.07227	87455.33182	2913.55631
0.07202	87403.47383	2912.55631
0.07177	87351.67035	2911.55631
0.07152	87299.92111	2910.55631
0.07127	87248.22582	2909.55631
0.07103	87196.58421	2908.55631
0.07078	87144.99600	2907.55631
0.07054	87093.46091	2906.55631
0.07030	87041.97868	2905.55631
0.07005	86990.54904	2904.55631
0.06981	86939.17171	2903.55631
0.06957	86887.84643	2902.55631
0.06934	86836.57293	2901.55631
0.06910	86785.35095	2900.55631
0.06886	86734.18024	2899.55631
0.06863	86683.06052	2898.55631
0.06839	86631.99156	2897.55631
0.06816	86580.97308	2896.55631
0.06793	86530.00483	2895.55631
0.06770	86479.08657	2894.55631
0.06747	86428.21805	2893.55631
0.06724	86377.39900	2892.55631
0.06701	86326.62920	2891.55631
0.06678	86275.90839	2890.55631
0.06655	86225.23633	2889.55631
0.06633	86174.61278	2888.55631
0.06610	86124.03750	2887.55631
0.06588	86073.51025	2886.55631
0.06566	86023.03080	2885.55631
0.06544	85972.59890	2884.55631
0.06521	85922.21433	2883.55631
0.06500	85871.87686	2882.55631
0.06478	85821.58625	2881.55631
0.06456	85771.34227	2880.55631
0.06434	85721.14471	2879.55631
0.06413	85670.99333	2878.55631
0.06391	85620.88791	2877.55631
0.06370	85570.82822	2876.55631
0.06348	85520.81406	2875.55631
0.06327	85470.84519	2874.55631
0.06306	85420.92140	2873.55631
0.06285	85371.04247	2872.55631
0.06264	85321.20820	2871.55631
0.06243	85271.41836	2870.55631
0.06222	85221.67274	2869.55631
0.06201	85171.97113	2868.55631
0.06181	85122.31333	2867.55631
0.06160	85072.69913	2866.55631
0.06140	85023.12832	2865.55631
0.06119	84973.60069	2864.55631
0.06099	84924.11604	2863.55631
0.06079	84874.67417	2862.55631
0.06059	84825.27488	2861.55631
0.06039	84775.91797	2860.55631
0.06019	84726.60325	2859.55631
0.05999	84677.33050	2858.55631
0.05979	84628.09955	2857.55631
0.05959	84578.91019	2856.55631
0.05940	84529.76223	2855.55631
0.05920	84480.65548	2854.55631
0.05901	84431.58976	2853.55631
0.05881	84382.56486	2852.55631
0.05862	84333.58061	2851.55631
0.05843	84284.63682	2850.55631
0.05824	84235.73329	2849.55631
0.05804	84186.86986	2848.55631
0.05785	84138.04632	2847.55631
0.05766	84089.26251	2846.55631
0.05748	84040.51825	2845.55631
0.05729	83991.81334	2844.55631
0.05710	83943.14762	2843.55631
0.05692	83894.52091	2842.55631
0.05673	83845.93303	2841.55631
0.05654	83797.38381	2840.55631
0.05636	83748.87307	2839.55631
0.05618	83700.40065	2838.55631
0.05599	83651.96636	2837.55631
0.05581	83603.57004	2836.55631
0.05563	83555.21153	2835.55631
0.05545	83506.89064	2834.55631
0.05527	83458.60723	2833.55631
0.05509	83410.36111	2832.55631
0.05491	83362.15213	2831.55631
0.05474	83313.98012	2830.55631
0.05456	83265.84492	2829.55631
0.05438	83217.74637	2828.55631
0.05421	83169.68430	2827.55631
0.05403	83121.65857	2826.55631
0.05386	83073.66900	2825.55631
0.05369	83025.71544	2824.55631
0.05351	82977.79774	2823.55631
0.05334	82929.91574	2822.55631
0.05317	82882.06928	2821.55631
0.05300	82834.25821	2820.55631
0.05283	82786.48239	2819.55631
0.05266	82738.74165	2818.55631
0.05249	82691.03584	2817.55631
0.05232	82643.36483	2816.55631
0.05216	82595.72845	2815.55631
0.05199	82548.12657	2814.55631
0.05182	82500.55903	2813.55631
0.05166	82453.02568	2812.55631
0.05149	82405.52639	2811.55631
0.05133	82358.06101	2810.55631
0.05116	82310.62939	2809.55631
0.05100	82263.23140	2808.55631
0.05084	82215.86689	2807.55631
0.05068	82168.53572	2806.55631
0.05052	82121.23776	2805.55631
0.05036	82073.97285	2804.55631
0.05020	82026.74088	2803.55631
0.05004	81979.54169	2802.55631
0.04988	81932.37515	2801.55631
0.04972	81885.24113	2800.55631
0.04956	81838.13949	2799.55631
0.04941	81791.07010	2798.55631
0.04925	81744.03282	2797.55631
0.04909	81697.02753	2796.55631
0.04894	81650.05410	2795.55631
0.04878	81603.11238	2794.55631
0.04863	81556.20226	2793.55631
0.04848	81509.32360	2792.55631
0.04832	81462.47627	2791.55631
0.04817	81415.66016	2790.55631
0.04802	81368.87512	2789.55631
0.04787	81322.12104	2788.55631
0.04772	81275.39780	2787.55631
0.04757	81228.70526	2786.55631
0.04742	81182.04330	2785.55631
0.04727	81135.41181	2784.55631
0.04712	81088.81065	2783.55631
0.04697	81042.23972	2782.55631
0.04683	80995.69888	2781.55631
0.04668	80949.18802	2780.55631
0.04654	80902.70701	2779.55631
0.04639	80856.25575	2778.55631
0.04624	80809.83411	2777.55631
0.04610	80763.44198	2776.55631
0.04596	80717.07924	2775.55631
0.04581	80670.74577	2774.55631
0.04567	80624.44146	2773.55631
0.04553	80578.16620	2772.55631
0.04539	80531.91987	2771.55631
0.04524	80485.70236	2770.55631
0.04510	80439.51356	2769.55631
0.04496	80393.35336	2768.55631
0.04482	80347.22164	2767.55631
0.04468	80301.11829	2766.55631
0.04455	80255.04321	2765.55631
0.04441	80208.99629	2764.55631
0.04427	80162.97742	2763.55631
0.04413	80116.98650	2762.55631
0.04400	80071.02340	2761.55631
0.04386	80025.08804	2760.55631
0.04372	79979.18030	2759.55631
0.04359	79933.30007	2758.55631
0.04345	79887.44727	2757.55631
0.04332	79841.62177	2756.55631
0.04319	79795.82348	2755.55631
0.04305	79750.05229	2754.55631
0.04292	79704.30811	2753.55631
0.04279	79658.59083	2752.55631
