Mole fraction of liquid	Heat per mole [J]	Temperature [K]
1.00000	1.51773E5	3452.89619
0.99994	1.51766E5	3452.80056
0.99001	1.51245E5	3451.80056
0.98022	1.50732E5	3450.80056
0.97056	1.50225E5	3449.80056
0.96103	1.49725E5	3448.80056
0.95164	1.49231E5	3447.80056
0.94238	1.48743E5	3446.80056
0.93324	1.48262E5	3445.80056
0.92423	1.47787E5	3444.80056
0.91534	1.47318E5	3443.80056
0.90657	1.46854E5	3442.80056
0.89792	1.46397E5	3441.80056
0.88939	1.45945E5	3440.80056
0.88097	1.45499E5	3439.80056
0.87266	1.45058E5	3438.80056
0.86446	1.44623E5	3437.80056
0.85638	1.44193E5	3436.80056
0.84839	1.43768E5	3435.80056
0.84052	1.43348E5	3434.80056
0.83274	1.42934E5	3433.80056
0.82507	1.42524E5	3432.80056
0.81750	1.42119E5	3431.80056
0.81002	1.41719E5	3430.80056
0.80264	1.41324E5	3429.80056
0.79536	1.40933E5	3428.80056
0.78816	1.40547E5	3427.80056
0.78106	1.40165E5	3426.80056
0.77405	1.39787E5	3425.80056
0.76713	1.39414E5	3424.80056
0.76030	1.39046E5	3423.80056
0.75355	1.38681E5	3422.80056
0.74689	1.38320E5	3421.80056
0.74031	1.37964E5	3420.80056
0.73381	1.37611E5	3419.80056
0.72739	1.37263E5	3418.80056
0.72105	1.36918E5	3417.80056
0.71478	1.36577E5	3416.80056
0.70860	1.36240E5	3415.80056
0.70249	1.35906E5	3414.80056
0.69645	1.35577E5	3413.80056
0.69049	1.35250E5	3412.80056
0.68460	1.34927E5	3411.80056
0.67878	1.34608E5	3410.80056
0.67303	1.34292E5	3409.80056
0.66735	1.33979E5	3408.80056
0.66173	1.33669E5	3407.80056
0.65618	1.33363E5	3406.80056
0.65070	1.33060E5	3405.80056
0.64528	1.32760E5	3404.80056
0.63993	1.32463E5	3403.80056
0.63464	1.32170E5	3402.80056
0.62941	1.31879E5	3401.80056
0.62424	1.31591E5	3400.80056
0.61913	1.31306E5	3399.80056
0.61407	1.31024E5	3398.80056
0.60908	1.30744E5	3397.80056
0.60415	1.30468E5	3396.80056
0.59927	1.30194E5	3395.80056
0.59444	1.29923E5	3394.80056
0.58967	1.29654E5	3393.80056
0.58496	1.29389E5	3392.80056
0.58029	1.29125E5	3391.80056
0.57568	1.28864E5	3390.80056
0.57112	1.28606E5	3389.80056
0.56662	1.28350E5	3388.80056
0.56216	1.28097E5	3387.80056
0.55775	1.27846E5	3386.80056
0.55339	1.27597E5	3385.80056
0.54908	1.27351E5	3384.80056
0.54481	1.27107E5	3383.80056
0.54060	1.26865E5	3382.80056
0.53642	1.26625E5	3381.80056
0.53230	1.26388E5	3380.80056
0.52822	1.26153E5	3379.80056
0.52418	1.25920E5	3378.80056
0.52018	1.25689E5	3377.80056
0.51623	1.25460E5	3376.80056
0.51232	1.25233E5	3375.80056
0.50845	1.25008E5	3374.80056
0.50463	1.24785E5	3373.80056
0.50084	1.24564E5	3372.80056
0.49709	1.24345E5	3371.80056
0.49339	1.24128E5	3370.80056
0.48972	1.23912E5	3369.80056
0.48609	1.23699E5	3368.80056
0.48250	1.23487E5	3367.80056
0.47894	1.23278E5	3366.80056
0.47543	1.23070E5	3365.80056
0.47194	1.22863E5	3364.80056
0.46850	1.22659E5	3363.80056
0.46509	1.22456E5	3362.80056
0.46171	1.22255E5	3361.80056
0.45837	1.22055E5	3360.80056
0.45507	1.21857E5	3359.80056
0.45179	1.21661E5	3358.80056
0.44855	1.21466E5	3357.80056
0.44534	1.21273E5	3356.80056
0.44217	1.21082E5	3355.80056
0.43903	1.20892E5	3354.80056
0.43591	1.20703E5	3353.80056
0.43283	1.20516E5	3352.80056
0.42978	1.20331E5	3351.80056
0.42676	1.20146E5	3350.80056
0.42377	1.19964E5	3349.80056
0.42081	1.19782E5	3348.80056
0.41788	1.19603E5	3347.80056
0.41498	1.19424E5	3346.80056
0.41210	1.19247E5	3345.80056
0.40925	1.19071E5	3344.80056
0.40644	1.18897E5	3343.80056
0.40364	1.18724E5	3342.80056
0.40088	1.18552E5	3341.80056
0.39814	1.18381E5	3340.80056
0.39543	1.18212E5	3339.80056
0.39274	1.18044E5	3338.80056
0.39008	1.17877E5	3337.80056
0.38745	1.17711E5	3336.80056
0.38484	1.17547E5	3335.80056
0.38225	1.17384E5	3334.80056
0.37969	1.17222E5	3333.80056
0.37715	1.17061E5	3332.80056
0.37464	1.16901E5	3331.80056
0.37215	1.16742E5	3330.80056
0.36968	1.16585E5	3329.80056
0.36724	1.16428E5	3328.80056
0.36482	1.16273E5	3327.80056
0.36242	1.16119E5	3326.80056
0.36005	1.15965E5	3325.80056
0.35769	1.15813E5	3324.80056
0.35536	1.15662E5	3323.80056
0.35305	1.15512E5	3322.80056
0.35076	1.15363E5	3321.80056
0.34849	1.15215E5	3320.80056
0.34624	1.15067E5	3319.80056
0.34401	1.14921E5	3318.80056
0.34180	1.14776E5	3317.80056
0.33961	1.14632E5	3316.80056
0.33744	1.14489E5	3315.80056
0.33530	1.14346E5	3314.80056
0.33317	1.14205E5	3313.80056
0.33105	1.14064E5	3312.80056
0.32896	1.13924E5	3311.80056
0.32689	1.13786E5	3310.80056
0.32483	1.13648E5	3309.80056
0.32280	1.13511E5	3308.80056
0.32078	1.13375E5	3307.80056
0.31877	1.13239E5	3306.80056
0.31679	1.13105E5	3305.80056
0.31482	1.12971E5	3304.80056
0.31287	1.12838E5	3303.80056
0.31094	1.12706E5	3302.80056
0.30902	1.12575E5	3301.80056
0.30713	1.12444E5	3300.80056
0.30524	1.12315E5	3299.80056
0.30338	1.12186E5	3298.80056
0.30152	1.12058E5	3297.80056
0.29969	1.11930E5	3296.80056
0.29787	1.11804E5	3295.80056
0.29607	1.11678E5	3294.80056
0.29428	1.11553E5	3293.80056
0.29250	1.11428E5	3292.80056
0.29075	1.11304E5	3291.80056
0.28900	1.11181E5	3290.80056
0.28727	1.11059E5	3289.80056
0.28556	1.10937E5	3288.80056
0.28386	1.10816E5	3287.80056
0.28217	1.10696E5	3286.80056
0.28050	1.10577E5	3285.80056
0.27884	1.10458E5	3284.80056
0.27720	1.10339E5	3283.80056
0.27557	1.10222E5	3282.80056
0.27395	1.10105E5	3281.80056
0.27234	1.09988E5	3280.80056
0.27075	1.09873E5	3279.80056
0.26918	1.09757E5	3278.80056
0.26761	1.09643E5	3277.80056
0.26606	1.09529E5	3276.80056
0.26452	1.09416E5	3275.80056
0.26299	1.09303E5	3274.80056
0.26148	1.09191E5	3273.80056
0.25997	1.09079E5	3272.80056
0.25848	1.08968E5	3271.80056
0.25700	1.08858E5	3270.80056
0.25554	1.08748E5	3269.80056
0.25408	1.08639E5	3268.80056
0.25264	1.08530E5	3267.80056
0.25121	1.08422E5	3266.80056
0.24979	1.08314E5	3265.80056
0.24838	1.08207E5	3264.80056
0.24698	1.08100E5	3263.80056
0.24559	1.07994E5	3262.80056
0.24422	1.07889E5	3261.80056
0.24285	1.07784E5	3260.80056
0.24149	1.07679E5	3259.80056
0.24015	1.07575E5	3258.80056
0.23882	1.07472E5	3257.80056
0.23749	1.07369E5	3256.80056
0.23618	1.07266E5	3255.80056
0.23488	1.07164E5	3254.80056
0.23358	1.07063E5	3253.80056
0.23230	1.06961E5	3252.80056
0.23103	1.06861E5	3251.80056
0.22976	1.06761E5	3250.80056
0.22851	1.06661E5	3249.80056
0.22726	1.06562E5	3248.80056
0.22603	1.06463E5	3247.80056
0.22480	1.06364E5	3246.80056
0.22359	1.06267E5	3245.80056
0.22238	1.06169E5	3244.80056
0.22118	1.06072E5	3243.80056
0.21999	1.05975E5	3242.80056
0.21881	1.05879E5	3241.80056
0.21764	1.05783E5	3240.80056
0.21648	1.05688E5	3239.80056
0.21533	1.05593E5	3238.80056
0.21418	1.05498E5	3237.80056
0.21305	1.05404E5	3236.80056
0.21192	1.05311E5	3235.80056
0.21080	1.05217E5	3234.80056
0.20969	1.05124E5	3233.80056
0.20858	1.05032E5	3232.80056
0.20749	1.04939E5	3231.80056
0.20640	1.04848E5	3230.80056
0.20532	1.04756E5	3229.80056
0.20425	1.04665E5	3228.80056
0.20318	1.04575E5	3227.80056
0.20213	1.04484E5	3226.80056
0.20108	1.04394E5	3225.80056
0.20004	1.04305E5	3224.80056
0.19901	1.04215E5	3223.80056
0.19798	1.04127E5	3222.80056
0.19696	1.04038E5	3221.80056
0.19595	1.03950E5	3220.80056
0.19495	1.03862E5	3219.80056
0.19395	1.03775E5	3218.80056
0.19296	1.03687E5	3217.80056
0.19198	1.03601E5	3216.80056
0.19100	1.03514E5	3215.80056
0.19003	1.03428E5	3214.80056
0.18907	1.03342E5	3213.80056
0.18812	1.03257E5	3212.80056
0.18717	1.03171E5	3211.80056
0.18623	1.03086E5	3210.80056
0.18529	1.03002E5	3209.80056
0.18436	1.02918E5	3208.80056
0.18344	1.02834E5	3207.80056
0.18252	1.02750E5	3206.80056
0.18161	1.02667E5	3205.80056
0.18071	1.02584E5	3204.80056
0.17982	1.02501E5	3203.80056
0.17892	1.02418E5	3202.80056
0.17804	1.02336E5	3201.80056
0.17716	1.02254E5	3200.80056
0.17629	1.02173E5	3199.80056
0.17542	1.02092E5	3198.80056
0.17456	1.02010E5	3197.80056
0.17371	1.01930E5	3196.80056
0.17286	1.01849E5	3195.80056
0.17202	1.01769E5	3194.80056
0.17118	1.01689E5	3193.80056
0.17035	1.01610E5	3192.80056
0.16952	1.01530E5	3191.80056
0.16870	1.01451E5	3190.80056
0.16789	1.01372E5	3189.80056
0.16708	1.01294E5	3188.80056
0.16627	1.01215E5	3187.80056
0.16547	1.01137E5	3186.80056
0.16468	1.01059E5	3185.80056
0.16389	1.00982E5	3184.80056
0.16311	1.00905E5	3183.80056
0.16233	1.00827E5	3182.80056
0.16156	1.00751E5	3181.80056
0.16079	1.00674E5	3180.80056
0.16003	1.00598E5	3179.80056
0.15927	1.00522E5	3178.80056
0.15852	1.00446E5	3177.80056
0.15777	1.00370E5	3176.80056
0.15703	1.00295E5	3175.80056
0.15629	1.00220E5	3174.80056
0.15556	1.00145E5	3173.80056
0.15483	1.00070E5	3172.80056
0.15411	99995.39113	3171.80056
0.15339	99921.12978	3170.80056
0.15267	99847.09018	3169.80056
0.15196	99773.27050	3168.80056
0.15126	99699.66893	3167.80056
0.15056	99626.28368	3166.80056
0.14986	99553.11298	3165.80056
0.14917	99480.15508	3164.80056
0.14848	99407.40825	3163.80056
0.14780	99334.87076	3162.80056
0.14712	99262.54091	3161.80056
0.14645	99190.41703	3160.80056
0.14578	99118.49746	3159.80056
0.14511	99046.78054	3158.80056
0.14445	98975.26464	3157.80056
0.14380	98903.94816	3156.80056
0.14314	98832.82948	3155.80056
0.14249	98761.90705	3154.80056
0.14185	98691.17928	3153.80056
0.14121	98620.64463	3152.80056
0.14057	98550.30157	3151.80056
0.13994	98480.14858	3150.80056
0.13931	98410.18415	3149.80056
0.13868	98340.40681	3148.80056
0.13806	98270.81507	3147.80056
0.13745	98201.40749	3146.80056
0.13683	98132.18261	3145.80056
0.13622	98063.13901	3144.80056
0.13562	97994.27528	3143.80056
0.13501	97925.59002	3142.80056
0.13442	97857.08183	3141.80056
0.13382	97788.74936	3140.80056
0.13323	97720.59123	3139.80056
0.13264	97652.60611	3138.80056
0.13206	97584.79266	3137.80056
0.13148	97517.14956	3136.80056
0.13090	97449.67551	3135.80056
0.13033	97382.36922	3134.80056
0.12976	97315.22940	3133.80056
0.12919	97248.25479	3132.80056
0.12863	97181.44413	3131.80056
0.12807	97114.79618	3130.80056
0.12751	97048.30971	3129.80056
0.12696	96981.98350	3128.80056
0.12641	96915.81634	3127.80056
0.12586	96849.80704	3126.80056
0.12532	96783.95441	3125.80056
0.12478	96718.25728	3124.80056
0.12424	96652.71449	3123.80056
0.12371	96587.32489	3122.80056
0.12318	96522.08735	3121.80056
0.12265	96457.00072	3120.80056
0.12213	96392.06390	3119.80056
0.12161	96327.27578	3118.80056
0.12109	96262.63526	3117.80056
0.12057	96198.14126	3116.80056
0.12006	96133.79270	3115.80056
0.11955	96069.58852	3114.80056
0.11905	96005.52766	3113.80056
0.11854	95941.60908	3112.80056
0.11804	95877.83174	3111.80056
0.11754	95814.19462	3110.80056
0.11705	95750.69669	3109.80056
0.11656	95687.33697	3108.80056
0.11607	95624.11444	3107.80056
0.11558	95561.02813	3106.80056
0.11510	95498.07704	3105.80056
0.11462	95435.26022	3104.80056
0.11414	95372.57671	3103.80056
0.11367	95310.02554	3102.80056
0.11320	95247.60579	3101.80056
0.11273	95185.31652	3100.80056
0.11226	95123.15679	3099.80056
0.11179	95061.12571	3098.80056
0.11133	94999.22235	3097.80056
0.11087	94937.44581	3096.80056
0.11042	94875.79522	3095.80056
0.10996	94814.26968	3094.80056
0.10951	94752.86831	3093.80056
0.10906	94691.59026	3092.80056
0.10862	94630.43466	3091.80056
0.10817	94569.40066	3090.80056
0.10773	94508.48742	3089.80056
0.10729	94447.69410	3088.80056
0.10686	94387.01987	3087.80056
0.10642	94326.46392	3086.80056
0.10599	94266.02542	3085.80056
0.10556	94205.70358	3084.80056
0.10514	94145.49758	3083.80056
0.10471	94085.40666	3082.80056
0.10429	94025.43000	3081.80056
0.10387	93965.56685	3080.80056
0.10345	93905.81643	3079.80056
0.10304	93846.17797	3078.80056
0.10263	93786.65072	3077.80056
0.10222	93727.23393	3076.80056
0.10181	93667.92685	3075.80056
0.10140	93608.72875	3074.80056
0.10100	93549.63890	3073.80056
0.10060	93490.65657	3072.80056
0.10020	93431.78104	3071.80056
0.09980	93373.01161	3070.80056
0.09940	93314.34757	3069.80056
0.09901	93255.78822	3068.80056
0.09862	93197.33287	3067.80056
0.09823	93138.98083	3066.80056
0.09785	93080.73142	3065.80056
0.09746	93022.58397	3064.80056
0.09708	92964.53780	3063.80056
0.09670	92906.59225	3062.80056
0.09632	92848.74668	3061.80056
0.09594	92791.00042	3060.80056
0.09557	92733.35282	3059.80056
0.09520	92675.80326	3058.80056
0.09483	92618.35109	3057.80056
0.09446	92560.99569	3056.80056
0.09409	92503.73642	3055.80056
0.09373	92446.57268	3054.80056
0.09336	92389.50385	3053.80056
0.09300	92332.52932	3052.80056
0.09264	92275.64848	3051.80056
0.09229	92218.86075	3050.80056
0.09193	92162.16552	3049.80056
0.09158	92105.56222	3048.80056
0.09123	92049.05025	3047.80056
0.09088	91992.62904	3046.80056
0.09053	91936.29802	3045.80056
0.09018	91880.05662	3044.80056
0.08984	91823.90428	3043.80056
0.08950	91767.84043	3042.80056
0.08915	91711.86453	3041.80056
0.08882	91655.97602	3040.80056
0.08848	91600.17436	3039.80056
0.08814	91544.45902	3038.80056
0.08781	91488.82945	3037.80056
0.08748	91433.28512	3036.80056
0.08715	91377.82552	3035.80056
0.08682	91322.45010	3034.80056
0.08649	91267.15837	3033.80056
0.08617	91211.94980	3032.80056
0.08584	91156.82389	3031.80056
0.08552	91101.78013	3030.80056
0.08520	91046.81801	3029.80056
0.08488	90991.93705	3028.80056
0.08457	90937.13675	3027.80056
0.08425	90882.41662	3026.80056
0.08394	90827.77618	3025.80056
0.08362	90773.21495	3024.80056
0.08331	90718.73245	3023.80056
0.08300	90664.32820	3022.80056
0.08270	90610.00174	3021.80056
0.08239	90555.75260	3020.80056
0.08209	90501.58033	3019.80056
0.08178	90447.48446	3018.80056
0.08148	90393.46454	3017.80056
0.08118	90339.52012	3016.80056
0.08088	90285.65075	3015.80056
0.08058	90231.85600	3014.80056
0.08029	90178.13541	3013.80056
0.08000	90124.48856	3012.80056
0.07970	90070.91501	3011.80056
0.07941	90017.41434	3010.80056
0.07912	89963.98611	3009.80056
0.07883	89910.62992	3008.80056
0.07855	89857.34532	3007.80056
0.07826	89804.13193	3006.80056
0.07798	89750.98931	3005.80056
0.07769	89697.91706	3004.80056
0.07741	89644.91478	3003.80056
0.07713	89591.98206	3002.80056
0.07685	89539.11850	3001.80056
0.07658	89486.32372	3000.80056
0.07630	89433.59731	2999.80056
0.07603	89380.93888	2998.80056
0.07575	89328.34805	2997.80056
0.07548	89275.82444	2996.80056
0.07521	89223.36767	2995.80056
0.07494	89170.97735	2994.80056
0.07467	89118.65311	2993.80056
0.07440	89066.39458	2992.80056
0.07414	89014.20139	2991.80056
0.07388	88962.07318	2990.80056
0.07361	88910.00958	2989.80056
0.07335	88858.01023	2988.80056
0.07309	88806.07477	2987.80056
0.07283	88754.20286	2986.80056
0.07257	88702.39413	2985.80056
0.07232	88650.64823	2984.80056
0.07206	88598.96483	2983.80056
0.07181	88547.34358	2982.80056
0.07155	88495.78413	2981.80056
0.07130	88444.28614	2980.80056
0.07105	88392.84929	2979.80056
0.07080	88341.47323	2978.80056
0.07055	88290.15764	2977.80056
0.07030	88238.90219	2976.80056
0.07006	88187.70654	2975.80056
0.06981	88136.57039	2974.80056
0.06957	88085.49340	2973.80056
0.06933	88034.47525	2972.80056
0.06909	87983.51564	2971.80056
0.06884	87932.61425	2970.80056
0.06861	87881.77076	2969.80056
0.06837	87830.98487	2968.80056
0.06813	87780.25626	2967.80056
0.06789	87729.58464	2966.80056
0.06766	87678.96971	2965.80056
0.06743	87628.41116	2964.80056
0.06719	87577.90869	2963.80056
0.06696	87527.46201	2962.80056
0.06673	87477.07083	2961.80056
0.06650	87426.73485	2960.80056
0.06627	87376.45379	2959.80056
0.06604	87326.22736	2958.80056
0.06582	87276.05527	2957.80056
0.06559	87225.93725	2956.80056
0.06537	87175.87300	2955.80056
0.06514	87125.86226	2954.80056
0.06492	87075.90475	2953.80056
0.06470	87026.00019	2952.80056
0.06448	86976.14830	2951.80056
0.06426	86926.34883	2950.80056
0.06404	86876.60150	2949.80056
0.06382	86826.90604	2948.80056
0.06361	86777.26219	2947.80056
0.06339	86727.66969	2946.80056
0.06318	86678.12827	2945.80056
0.06296	86628.63769	2944.80056
0.06275	86579.19767	2943.80056
0.06254	86529.80797	2942.80056
0.06233	86480.46834	2941.80056
0.06212	86431.17852	2940.80056
0.06191	86381.93826	2939.80056
0.06170	86332.74731	2938.80056
0.06150	86283.60543	2937.80056
0.06129	86234.51238	2936.80056
0.06109	86185.46791	2935.80056
0.06088	86136.47178	2934.80056
0.06068	86087.52376	2933.80056
0.06048	86038.62360	2932.80056
0.06027	85989.77107	2931.80056
0.06007	85940.96593	2930.80056
0.05987	85892.20796	2929.80056
0.05967	85843.49693	2928.80056
0.05948	85794.83260	2927.80056
0.05928	85746.21474	2926.80056
0.05908	85697.64314	2925.80056
0.05889	85649.11757	2924.80056
0.05869	85600.63780	2923.80056
0.05850	85552.20361	2922.80056
0.05831	85503.81479	2921.80056
0.05811	85455.47112	2920.80056
0.05792	85407.17238	2919.80056
0.05773	85358.91835	2918.80056
0.05754	85310.70883	2917.80056
0.05735	85262.54360	2916.80056
0.05716	85214.42245	2915.80056
0.05698	85166.34517	2914.80056
0.05679	85118.31155	2913.80056
0.05661	85070.32140	2912.80056
0.05642	85022.37450	2911.80056
0.05624	84974.47065	2910.80056
0.05605	84926.60965	2909.80056
0.05587	84878.79130	2908.80056
0.05569	84831.01540	2907.80056
0.05551	84783.28176	2906.80056
0.05533	84735.59017	2905.80056
0.05515	84687.94044	2904.80056
0.05497	84640.33238	2903.80056
0.05479	84592.76580	2902.80056
0.05462	84545.24050	2901.80056
0.05444	84497.75630	2900.80056
0.05426	84450.31301	2899.80056
0.05409	84402.91044	2898.80056
0.05391	84355.54840	2897.80056
0.05374	84308.22672	2896.80056
0.05357	84260.94520	2895.80056
0.05340	84213.70367	2894.80056
0.05322	84166.50195	2893.80056
0.05305	84119.33985	2892.80056
0.05288	84072.21720	2891.80056
0.05271	84025.13382	2890.80056
0.05255	83978.08954	2889.80056
0.05238	83931.08417	2888.80056
0.05221	83884.11755	2887.80056
0.05205	83837.18951	2886.80056
0.05188	83790.29987	2885.80056
0.05171	83743.44847	2884.80056
0.05155	83696.63513	2883.80056
0.05139	83649.85968	2882.80056
0.05122	83603.12197	2881.80056
0.05106	83556.42182	2880.80056
0.05090	83509.75907	2879.80056
0.05074	83463.13356	2878.80056
0.05058	83416.54512	2877.80056
0.05042	83369.99360	2876.80056
0.05026	83323.47883	2875.80056
0.05010	83277.00066	2874.80056
0.04994	83230.55892	2873.80056
0.04979	83184.15346	2872.80056
0.04963	83137.78413	2871.80056
0.04947	83091.45076	2870.80056
0.04932	83045.15322	2869.80056
0.04916	82998.89133	2868.80056
0.04901	82952.66495	2867.80056
0.04886	82906.47394	2866.80056
0.04870	82860.31813	2865.80056
0.04855	82814.19738	2864.80056
0.04840	82768.11155	2863.80056
0.04825	82722.06049	2862.80056
0.04810	82676.04404	2861.80056
0.04795	82630.06207	2860.80056
0.04780	82584.11443	2859.80056
0.04765	82538.20098	2858.80056
0.04750	82492.32157	2857.80056
0.04736	82446.47607	2856.80056
0.04721	82400.66433	2855.80056
0.04706	82354.88621	2854.80056
0.04692	82309.14159	2853.80056
0.04677	82263.43031	2852.80056
0.04663	82217.75224	2851.80056
0.04648	82172.10724	2850.80056
0.04634	82126.49519	2849.80056
0.04620	82080.91594	2848.80056
0.04606	82035.36936	2847.80056
0.04591	81989.85533	2846.80056
0.04577	81944.37370	2845.80056
0.04563	81898.92435	2844.80056
0.04549	81853.50715	2843.80056
0.04535	81808.12197	2842.80056
0.04521	81762.76867	2841.80056
0.04508	81717.44714	2840.80056
0.04494	81672.15724	2839.80056
0.04480	81626.89886	2838.80056
0.04466	81581.67186	2837.80056
0.04453	81536.47611	2836.80056
0.04439	81491.31151	2835.80056
0.04426	81446.17792	2834.80056
0.04412	81401.07522	2833.80056
0.04399	81356.00329	2832.80056
0.04386	81310.96201	2831.80056
0.04372	81265.95126	2830.80056
0.04359	81220.97092	2829.80056
0.04346	81176.02088	2828.80056
0.04333	81131.10101	2827.80056
0.04319	81086.21120	2826.80056
0.04306	81041.35133	2825.80056
0.04293	80996.52129	2824.80056
0.04280	80951.72096	2823.80056
0.04268	80906.95023	2822.80056
0.04255	80862.20898	2821.80056
0.04242	80817.49711	2820.80056
0.04229	80772.81450	2819.80056
0.04216	80728.16104	2818.80056
0.04204	80683.53661	2817.80056
0.04191	80638.94112	2816.80056
0.04178	80594.37445	2815.80056
0.04166	80549.83649	2814.80056
0.04153	80505.32713	2813.80056
0.04141	80460.84627	2812.80056
0.04129	80416.39380	2811.80056
0.04116	80371.96962	2810.80056
0.04104	80327.57361	2809.80056
0.04092	80283.20568	2808.80056
0.04080	80238.86573	2807.80056
0.04067	80194.55364	2806.80056
0.04055	80150.26931	2805.80056
0.04043	80106.01265	2804.80056
0.04031	80061.78355	2803.80056
0.04019	80017.58191	2802.80056
0.04007	79973.40763	2801.80056
0.03995	79929.26061	2800.80056
0.03984	79885.14076	2799.80056
0.03972	79841.04796	2798.80056
0.03960	79796.98214	2797.80056
0.03948	79752.94318	2796.80056
0.03937	79708.93100	2795.80056
0.03925	79664.94549	2794.80056
0.03913	79620.98656	2793.80056
