Mole fraction of liquid	Heat per mole [J]	Temperature [K]
1.00000	1.55706E5	3506.94485
0.99993	1.55698E5	3506.84922
0.98700	1.55021E5	3505.84922
0.97430	1.54356E5	3504.84922
0.96183	1.53703E5	3503.84922
0.94959	1.53060E5	3502.84922
0.93757	1.52429E5	3501.84922
0.92576	1.51808E5	3500.84922
0.91415	1.51197E5	3499.84922
0.90276	1.50596E5	3498.84922
0.89156	1.50006E5	3497.84922
0.88055	1.49425E5	3496.84922
0.86974	1.48853E5	3495.84922
0.85912	1.48291E5	3494.84922
0.84867	1.47738E5	3493.84922
0.83841	1.47193E5	3492.84922
0.82831	1.46658E5	3491.84922
0.81839	1.46130E5	3490.84922
0.80864	1.45611E5	3489.84922
0.79905	1.45100E5	3488.84922
0.78961	1.44597E5	3487.84922
0.78034	1.44102E5	3486.84922
0.77122	1.43614E5	3485.84922
0.76224	1.43133E5	3484.84922
0.75342	1.42660E5	3483.84922
0.74474	1.42194E5	3482.84922
0.73619	1.41735E5	3481.84922
0.72779	1.41282E5	3480.84922
0.71952	1.40837E5	3479.84922
0.71138	1.40397E5	3478.84922
0.70337	1.39965E5	3477.84922
0.69549	1.39538E5	3476.84922
0.68773	1.39118E5	3475.84922
0.68009	1.38703E5	3474.84922
0.67258	1.38294E5	3473.84922
0.66518	1.37892E5	3472.84922
0.65789	1.37494E5	3471.84922
0.65071	1.37103E5	3470.84922
0.64365	1.36716E5	3469.84922
0.63669	1.36335E5	3468.84922
0.62984	1.35959E5	3467.84922
0.62309	1.35589E5	3466.84922
0.61645	1.35223E5	3465.84922
0.60990	1.34862E5	3464.84922
0.60345	1.34506E5	3463.84922
0.59710	1.34155E5	3462.84922
0.59084	1.33808E5	3461.84922
0.58467	1.33466E5	3460.84922
0.57859	1.33128E5	3459.84922
0.57260	1.32795E5	3458.84922
0.56670	1.32466E5	3457.84922
0.56089	1.32141E5	3456.84922
0.55515	1.31820E5	3455.84922
0.54950	1.31503E5	3454.84922
0.54394	1.31191E5	3453.84922
0.53845	1.30882E5	3452.84922
0.53303	1.30577E5	3451.84922
0.52770	1.30275E5	3450.84922
0.52244	1.29978E5	3449.84922
0.51725	1.29684E5	3448.84922
0.51213	1.29393E5	3447.84922
0.50709	1.29106E5	3446.84922
0.50212	1.28823E5	3445.84922
0.49721	1.28542E5	3444.84922
0.49237	1.28265E5	3443.84922
0.48760	1.27992E5	3442.84922
0.48289	1.27721E5	3441.84922
0.47825	1.27454E5	3440.84922
0.47367	1.27189E5	3439.84922
0.46915	1.26928E5	3438.84922
0.46469	1.26670E5	3437.84922
0.46029	1.26414E5	3436.84922
0.45595	1.26162E5	3435.84922
0.45167	1.25912E5	3434.84922
0.44744	1.25665E5	3433.84922
0.44327	1.25420E5	3432.84922
0.43915	1.25179E5	3431.84922
0.43509	1.24940E5	3430.84922
0.43108	1.24703E5	3429.84922
0.42712	1.24469E5	3428.84922
0.42322	1.24238E5	3427.84922
0.41936	1.24009E5	3426.84922
0.41555	1.23782E5	3425.84922
0.41179	1.23558E5	3424.84922
0.40808	1.23336E5	3423.84922
0.40442	1.23117E5	3422.84922
0.40080	1.22900E5	3421.84922
0.39722	1.22684E5	3420.84922
0.39370	1.22471E5	3419.84922
0.39021	1.22261E5	3418.84922
0.38677	1.22052E5	3417.84922
0.38337	1.21845E5	3416.84922
0.38002	1.21641E5	3415.84922
0.37670	1.21438E5	3414.84922
0.37343	1.21238E5	3413.84922
0.37019	1.21039E5	3412.84922
0.36700	1.20842E5	3411.84922
0.36384	1.20648E5	3410.84922
0.36072	1.20455E5	3409.84922
0.35764	1.20263E5	3408.84922
0.35460	1.20074E5	3407.84922
0.35159	1.19887E5	3406.84922
0.34862	1.19701E5	3405.84922
0.34568	1.19517E5	3404.84922
0.34278	1.19334E5	3403.84922
0.33991	1.19153E5	3402.84922
0.33708	1.18974E5	3401.84922
0.33428	1.18797E5	3400.84922
0.33151	1.18621E5	3399.84922
0.32877	1.18446E5	3398.84922
0.32607	1.18273E5	3397.84922
0.32340	1.18102E5	3396.84922
0.32075	1.17932E5	3395.84922
0.31814	1.17764E5	3394.84922
0.31556	1.17597E5	3393.84922
0.31301	1.17432E5	3392.84922
0.31048	1.17267E5	3391.84922
0.30799	1.17105E5	3390.84922
0.30552	1.16943E5	3389.84922
0.30308	1.16783E5	3388.84922
0.30067	1.16625E5	3387.84922
0.29828	1.16467E5	3386.84922
0.29592	1.16311E5	3385.84922
0.29359	1.16157E5	3384.84922
0.29129	1.16003E5	3383.84922
0.28900	1.15851E5	3382.84922
0.28675	1.15700E5	3381.84922
0.28452	1.15550E5	3380.84922
0.28231	1.15401E5	3379.84922
0.28013	1.15253E5	3378.84922
0.27797	1.15107E5	3377.84922
0.27583	1.14962E5	3376.84922
0.27372	1.14818E5	3375.84922
0.27163	1.14674E5	3374.84922
0.26956	1.14532E5	3373.84922
0.26751	1.14392E5	3372.84922
0.26549	1.14252E5	3371.84922
0.26349	1.14113E5	3370.84922
0.26151	1.13975E5	3369.84922
0.25954	1.13838E5	3368.84922
0.25760	1.13703E5	3367.84922
0.25569	1.13568E5	3366.84922
0.25379	1.13434E5	3365.84922
0.25191	1.13301E5	3364.84922
0.25005	1.13169E5	3363.84922
0.24820	1.13038E5	3362.84922
0.24638	1.12908E5	3361.84922
0.24458	1.12779E5	3360.84922
0.24279	1.12651E5	3359.84922
0.24103	1.12523E5	3358.84922
0.23928	1.12397E5	3357.84922
0.23755	1.12271E5	3356.84922
0.23584	1.12146E5	3355.84922
0.23414	1.12022E5	3354.84922
0.23246	1.11899E5	3353.84922
0.23080	1.11777E5	3352.84922
0.22915	1.11655E5	3351.84922
0.22753	1.11534E5	3350.84922
0.22591	1.11414E5	3349.84922
0.22432	1.11295E5	3348.84922
0.22274	1.11177E5	3347.84922
0.22117	1.11059E5	3346.84922
0.21962	1.10942E5	3345.84922
0.21809	1.10826E5	3344.84922
0.21657	1.10711E5	3343.84922
0.21506	1.10596E5	3342.84922
0.21357	1.10482E5	3341.84922
0.21210	1.10368E5	3340.84922
0.21063	1.10256E5	3339.84922
0.20919	1.10144E5	3338.84922
0.20775	1.10033E5	3337.84922
0.20633	1.09922E5	3336.84922
0.20493	1.09812E5	3335.84922
0.20354	1.09703E5	3334.84922
0.20216	1.09594E5	3333.84922
0.20079	1.09486E5	3332.84922
0.19944	1.09378E5	3331.84922
0.19810	1.09272E5	3330.84922
0.19677	1.09165E5	3329.84922
0.19545	1.09060E5	3328.84922
0.19415	1.08955E5	3327.84922
0.19286	1.08850E5	3326.84922
0.19158	1.08746E5	3325.84922
0.19031	1.08643E5	3324.84922
0.18906	1.08541E5	3323.84922
0.18781	1.08438E5	3322.84922
0.18658	1.08337E5	3321.84922
0.18536	1.08236E5	3320.84922
0.18415	1.08135E5	3319.84922
0.18295	1.08035E5	3318.84922
0.18176	1.07936E5	3317.84922
0.18059	1.07837E5	3316.84922
0.17942	1.07738E5	3315.84922
0.17826	1.07641E5	3314.84922
0.17712	1.07543E5	3313.84922
0.17598	1.07446E5	3312.84922
0.17486	1.07350E5	3311.84922
0.17374	1.07254E5	3310.84922
0.17264	1.07158E5	3309.84922
0.17154	1.07063E5	3308.84922
0.17046	1.06969E5	3307.84922
0.16938	1.06875E5	3306.84922
0.16832	1.06781E5	3305.84922
0.16726	1.06688E5	3304.84922
0.16621	1.06596E5	3303.84922
0.16517	1.06503E5	3302.84922
0.16414	1.06412E5	3301.84922
0.16312	1.06320E5	3300.84922
0.16211	1.06229E5	3299.84922
0.16111	1.06139E5	3298.84922
0.16011	1.06049E5	3297.84922
0.15913	1.05959E5	3296.84922
0.15815	1.05870E5	3295.84922
0.15718	1.05781E5	3294.84922
0.15622	1.05692E5	3293.84922
0.15527	1.05604E5	3292.84922
0.15433	1.05517E5	3291.84922
0.15339	1.05429E5	3290.84922
0.15246	1.05342E5	3289.84922
0.15154	1.05256E5	3288.84922
0.15063	1.05170E5	3287.84922
0.14972	1.05084E5	3286.84922
0.14883	1.04998E5	3285.84922
0.14794	1.04913E5	3284.84922
0.14705	1.04829E5	3283.84922
0.14618	1.04744E5	3282.84922
0.14531	1.04660E5	3281.84922
0.14445	1.04577E5	3280.84922
0.14360	1.04493E5	3279.84922
0.14275	1.04411E5	3278.84922
0.14191	1.04328E5	3277.84922
0.14108	1.04246E5	3276.84922
0.14025	1.04164E5	3275.84922
0.13943	1.04082E5	3274.84922
0.13862	1.04001E5	3273.84922
0.13782	1.03920E5	3272.84922
0.13702	1.03839E5	3271.84922
0.13622	1.03759E5	3270.84922
0.13544	1.03679E5	3269.84922
0.13466	1.03599E5	3268.84922
0.13388	1.03520E5	3267.84922
0.13312	1.03440E5	3266.84922
0.13236	1.03362E5	3265.84922
0.13160	1.03283E5	3264.84922
0.13085	1.03205E5	3263.84922
0.13011	1.03127E5	3262.84922
0.12937	1.03049E5	3261.84922
0.12864	1.02972E5	3260.84922
0.12791	1.02895E5	3259.84922
0.12719	1.02818E5	3258.84922
0.12648	1.02741E5	3257.84922
0.12577	1.02665E5	3256.84922
0.12507	1.02589E5	3255.84922
0.12437	1.02513E5	3254.84922
0.12367	1.02438E5	3253.84922
0.12299	1.02362E5	3252.84922
0.12231	1.02287E5	3251.84922
0.12163	1.02213E5	3250.84922
0.12096	1.02138E5	3249.84922
0.12029	1.02064E5	3248.84922
0.11963	1.01990E5	3247.84922
0.11897	1.01916E5	3246.84922
0.11832	1.01843E5	3245.84922
0.11768	1.01770E5	3244.84922
0.11704	1.01697E5	3243.84922
0.11640	1.01624E5	3242.84922
0.11577	1.01551E5	3241.84922
0.11514	1.01479E5	3240.84922
0.11452	1.01407E5	3239.84922
0.11390	1.01335E5	3238.84922
0.11329	1.01264E5	3237.84922
0.11268	1.01192E5	3236.84922
0.11208	1.01121E5	3235.84922
0.11148	1.01050E5	3234.84922
0.11088	1.00979E5	3233.84922
0.11029	1.00909E5	3232.84922
0.10971	1.00839E5	3231.84922
0.10913	1.00768E5	3230.84922
0.10855	1.00699E5	3229.84922
0.10798	1.00629E5	3228.84922
0.10741	1.00559E5	3227.84922
0.10684	1.00490E5	3226.84922
0.10628	1.00421E5	3225.84922
0.10573	1.00352E5	3224.84922
0.10517	1.00284E5	3223.84922
0.10463	1.00215E5	3222.84922
0.10408	1.00147E5	3221.84922
0.10354	1.00079E5	3220.84922
0.10300	1.00011E5	3219.84922
0.10247	99943.19908	3218.84922
0.10194	99875.68752	3217.84922
0.10142	99808.36177	3216.84922
0.10090	99741.22016	3215.84922
0.10038	99674.26106	3214.84922
0.09987	99607.48283	3213.84922
0.09936	99540.88388	3212.84922
0.09885	99474.46262	3211.84922
0.09835	99408.21747	3210.84922
0.09785	99342.14689	3209.84922
0.09735	99276.24935	3208.84922
0.09686	99210.52333	3207.84922
0.09637	99144.96732	3206.84922
0.09588	99079.57986	3205.84922
0.09540	99014.35947	3204.84922
0.09492	98949.30470	3203.84922
0.09445	98884.41413	3202.84922
0.09397	98819.68634	3201.84922
0.09350	98755.11992	3200.84922
0.09304	98690.71350	3199.84922
0.09258	98626.46570	3198.84922
0.09212	98562.37517	3197.84922
0.09166	98498.44056	3196.84922
0.09121	98434.66057	3195.84922
0.09076	98371.03387	3194.84922
0.09031	98307.55917	3193.84922
0.08987	98244.23519	3192.84922
0.08943	98181.06066	3191.84922
0.08899	98118.03434	3190.84922
0.08855	98055.15497	3189.84922
0.08812	97992.42134	3188.84922
0.08769	97929.83224	3187.84922
0.08727	97867.38645	3186.84922
0.08684	97805.08280	3185.84922
0.08642	97742.92012	3184.84922
0.08601	97680.89724	3183.84922
0.08559	97619.01301	3182.84922
0.08518	97557.26630	3181.84922
0.08477	97495.65599	3180.84922
0.08436	97434.18096	3179.84922
0.08396	97372.84012	3178.84922
0.08356	97311.63236	3177.84922
0.08316	97250.55663	3176.84922
0.08276	97189.61185	3175.84922
0.08237	97128.79698	3174.84922
0.08198	97068.11096	3173.84922
0.08159	97007.55276	3172.84922
0.08121	96947.12138	3171.84922
0.08082	96886.81578	3170.84922
0.08044	96826.63499	3169.84922
0.08006	96766.57800	3168.84922
0.07969	96706.64384	3167.84922
0.07932	96646.83154	3166.84922
0.07894	96587.14015	3165.84922
0.07858	96527.56871	3164.84922
0.07821	96468.11628	3163.84922
0.07785	96408.78195	3162.84922
0.07748	96349.56478	3161.84922
0.07713	96290.46387	3160.84922
0.07677	96231.47832	3159.84922
0.07641	96172.60724	3158.84922
0.07606	96113.84975	3157.84922
0.07571	96055.20497	3156.84922
0.07536	95996.67203	3155.84922
0.07502	95938.25010	3154.84922
0.07468	95879.93831	3153.84922
0.07433	95821.73584	3152.84922
0.07400	95763.64185	3151.84922
0.07366	95705.65551	3150.84922
0.07332	95647.77603	3149.84922
0.07299	95590.00260	3148.84922
0.07266	95532.33441	3147.84922
0.07233	95474.77068	3146.84922
0.07200	95417.31063	3145.84922
0.07168	95359.95349	3144.84922
0.07136	95302.69850	3143.84922
0.07104	95245.54489	3142.84922
0.07072	95188.49192	3141.84922
0.07040	95131.53884	3140.84922
0.07009	95074.68493	3139.84922
0.06977	95017.92944	3138.84922
0.06946	94961.27167	3137.84922
0.06916	94904.71090	3136.84922
0.06885	94848.24643	3135.84922
0.06854	94791.87754	3134.84922
0.06824	94735.60356	3133.84922
0.06794	94679.42380	3132.84922
0.06764	94623.33758	3131.84922
0.06734	94567.34422	3130.84922
0.06705	94511.44306	3129.84922
0.06675	94455.63344	3128.84922
0.06646	94399.91472	3127.84922
0.06617	94344.28623	3126.84922
0.06588	94288.74735	3125.84922
0.06559	94233.29743	3124.84922
0.06531	94177.93586	3123.84922
0.06502	94122.66200	3122.84922
0.06474	94067.47525	3121.84922
0.06446	94012.37499	3120.84922
0.06418	93957.36062	3119.84922
0.06390	93902.43154	3118.84922
0.06363	93847.58716	3117.84922
0.06336	93792.82688	3116.84922
0.06308	93738.15014	3115.84922
0.06281	93683.55635	3114.84922
0.06254	93629.04495	3113.84922
0.06228	93574.61536	3112.84922
0.06201	93520.26704	3111.84922
0.06175	93465.99941	3110.84922
0.06148	93411.81194	3109.84922
0.06122	93357.70408	3108.84922
0.06096	93303.67530	3107.84922
0.06070	93249.72505	3106.84922
0.06045	93195.85281	3105.84922
0.06019	93142.05806	3104.84922
0.05994	93088.34027	3103.84922
0.05969	93034.69893	3102.84922
0.05944	92981.13354	3101.84922
0.05919	92927.64358	3100.84922
0.05894	92874.22856	3099.84922
0.05869	92820.88798	3098.84922
0.05845	92767.62135	3097.84922
0.05820	92714.42819	3096.84922
0.05796	92661.30801	3095.84922
0.05772	92608.26033	3094.84922
0.05748	92555.28468	3093.84922
0.05724	92502.38060	3092.84922
0.05700	92449.54761	3091.84922
0.05677	92396.78526	3090.84922
0.05653	92344.09308	3089.84922
0.05630	92291.47064	3088.84922
0.05607	92238.91748	3087.84922
0.05584	92186.43315	3086.84922
0.05561	92134.01723	3085.84922
0.05538	92081.66926	3084.84922
0.05516	92029.38882	3083.84922
0.05493	91977.17547	3082.84922
0.05471	91925.02881	3081.84922
0.05448	91872.94840	3080.84922
0.05426	91820.93383	3079.84922
0.05404	91768.98468	3078.84922
0.05382	91717.10055	3077.84922
0.05361	91665.28102	3076.84922
0.05339	91613.52571	3075.84922
0.05317	91561.83420	3074.84922
0.05296	91510.20610	3073.84922
0.05275	91458.64103	3072.84922
0.05253	91407.13859	3071.84922
0.05232	91355.69840	3070.84922
0.05211	91304.32007	3069.84922
0.05191	91253.00324	3068.84922
0.05170	91201.74752	3067.84922
0.05149	91150.55254	3066.84922
0.05129	91099.41793	3065.84922
0.05108	91048.34333	3064.84922
0.05088	90997.32838	3063.84922
0.05068	90946.37272	3062.84922
0.05048	90895.47599	3061.84922
0.05028	90844.63784	3060.84922
0.05008	90793.85792	3059.84922
0.04988	90743.13588	3058.84922
0.04969	90692.47138	3057.84922
0.04949	90641.86408	3056.84922
0.04930	90591.31365	3055.84922
0.04910	90540.81973	3054.84922
0.04891	90490.38202	3053.84922
0.04872	90440.00016	3052.84922
0.04853	90389.67385	3051.84922
0.04834	90339.40275	3050.84922
0.04815	90289.18655	3049.84922
0.04796	90239.02492	3048.84922
0.04778	90188.91755	3047.84922
0.04759	90138.86413	3046.84922
0.04741	90088.86435	3045.84922
0.04722	90038.91790	3044.84922
0.04704	89989.02447	3043.84922
0.04686	89939.18376	3042.84922
0.04668	89889.39548	3041.84922
0.04650	89839.65932	3040.84922
0.04632	89789.97500	3039.84922
0.04614	89740.34221	3038.84922
0.04597	89690.76066	3037.84922
0.04579	89641.23008	3036.84922
0.04562	89591.75017	3035.84922
0.04544	89542.32066	3034.84922
0.04527	89492.94125	3033.84922
0.04510	89443.61168	3032.84922
0.04493	89394.33166	3031.84922
0.04476	89345.10093	3030.84922
0.04459	89295.91921	3029.84922
0.04442	89246.78623	3028.84922
0.04425	89197.70173	3027.84922
0.04408	89148.66544	3026.84922
0.04392	89099.67710	3025.84922
0.04375	89050.73644	3024.84922
0.04359	89001.84321	3023.84922
0.04342	88952.99716	3022.84922
0.04326	88904.19802	3021.84922
0.04310	88855.44555	3020.84922
0.04294	88806.73950	3019.84922
0.04278	88758.07961	3018.84922
0.04262	88709.46564	3017.84922
0.04246	88660.89735	3016.84922
0.04230	88612.37450	3015.84922
0.04214	88563.89684	3014.84922
0.04199	88515.46414	3013.84922
0.04183	88467.07616	3012.84922
0.04167	88418.73266	3011.84922
0.04152	88370.43341	3010.84922
0.04137	88322.17819	3009.84922
0.04121	88273.96676	3008.84922
0.04106	88225.79889	3007.84922
0.04091	88177.67436	3006.84922
0.04076	88129.59295	3005.84922
0.04061	88081.55443	3004.84922
0.04046	88033.55859	3003.84922
0.04031	87985.60520	3002.84922
0.04017	87937.69405	3001.84922
0.04002	87889.82493	3000.84922
0.03987	87841.99761	2999.84922
0.03973	87794.21190	2998.84922
0.03958	87746.46757	2997.84922
0.03944	87698.76442	2996.84922
0.03930	87651.10224	2995.84922
0.03915	87603.48084	2994.84922
0.03901	87555.89999	2993.84922
0.03887	87508.35951	2992.84922
0.03873	87460.85919	2991.84922
0.03859	87413.39884	2990.84922
0.03845	87365.97825	2989.84922
0.03831	87318.59723	2988.84922
0.03818	87271.25558	2987.84922
0.03804	87223.95312	2986.84922
0.03790	87176.68964	2985.84922
0.03777	87129.46497	2984.84922
0.03763	87082.27891	2983.84922
0.03750	87035.13128	2982.84922
0.03736	86988.02188	2981.84922
0.03723	86940.95054	2980.84922
0.03710	86893.91707	2979.84922
0.03697	86846.92129	2978.84922
0.03683	86799.96303	2977.84922
0.03670	86753.04209	2976.84922
0.03657	86706.15831	2975.84922
0.03644	86659.31151	2974.84922
0.03632	86612.50151	2973.84922
0.03619	86565.72814	2972.84922
0.03606	86518.99123	2971.84922
0.03593	86472.29060	2970.84922
0.03581	86425.62609	2969.84922
0.03568	86378.99753	2968.84922
0.03555	86332.40476	2967.84922
0.03543	86285.84759	2966.84922
0.03531	86239.32588	2965.84922
0.03518	86192.83946	2964.84922
0.03506	86146.38816	2963.84922
0.03494	86099.97183	2962.84922
0.03481	86053.59030	2961.84922
0.03469	86007.24342	2960.84922
0.03457	85960.93102	2959.84922
0.03445	85914.65296	2958.84922
0.03433	85868.40908	2957.84922
0.03421	85822.19921	2956.84922
0.03410	85776.02322	2955.84922
0.03398	85729.88094	2954.84922
0.03386	85683.77224	2953.84922
0.03374	85637.69694	2952.84922
0.03363	85591.65492	2951.84922
0.03351	85545.64602	2950.84922
0.03340	85499.67009	2949.84922
0.03328	85453.72700	2948.84922
0.03317	85407.81658	2947.84922
0.03305	85361.93871	2946.84922
0.03294	85316.09324	2945.84922
0.03283	85270.28003	2944.84922
0.03271	85224.49893	2943.84922
0.03260	85178.74982	2942.84922
0.03249	85133.03254	2941.84922
0.03238	85087.34697	2940.84922
0.03227	85041.69296	2939.84922
0.03216	84996.07038	2938.84922
0.03205	84950.47911	2937.84922
0.03194	84904.91899	2936.84922
0.03183	84859.38991	2935.84922
0.03173	84813.89172	2934.84922
0.03162	84768.42431	2933.84922
0.03151	84722.98753	2932.84922
0.03141	84677.58127	2931.84922
0.03130	84632.20538	2930.84922
0.03119	84586.85976	2929.84922
0.03109	84541.54426	2928.84922
0.03099	84496.25876	2927.84922
0.03088	84451.00315	2926.84922
0.03078	84405.77729	2925.84922
0.03067	84360.58107	2924.84922
0.03057	84315.41435	2923.84922
0.03047	84270.27703	2922.84922
0.03037	84225.16898	2921.84922
0.03027	84180.09008	2920.84922
0.03017	84135.04021	2919.84922
0.03006	84090.01926	2918.84922
0.02996	84045.02711	2917.84922
0.02987	84000.06364	2916.84922
0.02977	83955.12873	2915.84922
0.02967	83910.22228	2914.84922
0.02957	83865.34417	2913.84922
0.02947	83820.49428	2912.84922
0.02937	83775.67251	2911.84922
0.02928	83730.87874	2910.84922
0.02918	83686.11286	2909.84922
0.02908	83641.37476	2908.84922
0.02899	83596.66434	2907.84922
0.02889	83551.98148	2906.84922
0.02880	83507.32607	2905.84922
0.02870	83462.69802	2904.84922
0.02861	83418.09721	2903.84922
0.02851	83373.52354	2902.84922
0.02842	83328.97690	2901.84922
0.02833	83284.45719	2900.84922
0.02824	83239.96431	2899.84922
0.02814	83195.49814	2898.84922
0.02805	83151.05860	2897.84922
0.02796	83106.64558	2896.84922
0.02787	83062.25898	2895.84922
0.02778	83017.89870	2894.84922
0.02769	82973.56463	2893.84922
0.02760	82929.25669	2892.84922
0.02751	82884.97477	2891.84922
0.02742	82840.71878	2890.84922
0.02733	82796.48861	2889.84922
0.02724	82752.28418	2888.84922
0.02715	82708.10538	2887.84922
0.02707	82663.95212	2886.84922
0.02698	82619.82432	2885.84922
0.02689	82575.72186	2884.84922
0.02681	82531.64467	2883.84922
0.02672	82487.59265	2882.84922
0.02663	82443.56570	2881.84922
0.02655	82399.56374	2880.84922
0.02646	82355.58667	2879.84922
0.02638	82311.63441	2878.84922
0.02629	82267.70687	2877.84922
0.02621	82223.80395	2876.84922
0.02613	82179.92556	2875.84922
0.02604	82136.07163	2874.84922
0.02596	82092.24207	2873.84922
0.02588	82048.43677	2872.84922
0.02579	82004.65567	2871.84922
0.02571	81960.89868	2870.84922
0.02563	81917.16570	2869.84922
0.02555	81873.45666	2868.84922
0.02547	81829.77147	2867.84922
0.02539	81786.11005	2866.84922
0.02531	81742.47232	2865.84922
0.02523	81698.85819	2864.84922
0.02515	81655.26758	2863.84922
0.02507	81611.70040	2862.84922
0.02499	81568.15659	2861.84922
0.02491	81524.63606	2860.84922
0.02483	81481.13873	2859.84922
0.02475	81437.66452	2858.84922
0.02467	81394.21334	2857.84922
0.02460	81350.78513	2856.84922
0.02452	81307.37981	2855.84922
0.02444	81263.99730	2854.84922
0.02437	81220.63751	2853.84922
0.02429	81177.30038	2852.84922
0.02421	81133.98583	2851.84922
0.02414	81090.69378	2850.84922
0.02406	81047.42416	2849.84922
0.02399	81004.17690	2848.84922
0.02391	80960.95191	2847.84922
