Mole fraction of liquid	Heat per mole [J]	Temperature [K]
1.00000	91000.27222	2325.39943
0.99998	90995.61382	2325.30380
0.99627	90856.51468	2324.30380
0.99256	90717.57629	2323.30380
0.98886	90578.79697	2322.30380
0.98516	90440.17502	2321.30380
0.98146	90301.70873	2320.30380
0.97776	90163.39639	2319.30380
0.97406	90025.23627	2318.30380
0.97037	89887.22665	2317.30380
0.96668	89749.36577	2316.30380
0.96299	89611.65188	2315.30380
0.95930	89474.08321	2314.30380
0.95562	89336.65798	2313.30380
0.95194	89199.37439	2312.30380
0.94825	89062.23063	2311.30380
0.94457	88925.22491	2310.30380
0.94090	88788.35536	2309.30380
0.93722	88651.62017	2308.30380
0.93354	88515.01746	2307.30380
0.92987	88378.54535	2306.30380
0.92620	88242.20197	2305.30380
0.92253	88105.98540	2304.30380
0.91886	87969.89373	2303.30380
0.91519	87833.92502	2302.30380
0.91152	87698.07731	2301.30380
0.90785	87562.34864	2300.30380
0.90419	87426.73701	2299.30380
0.90052	87291.24042	2298.30380
0.89685	87155.85684	2297.30380
0.89319	87020.58422	2296.30380
0.88953	86885.42051	2295.30380
0.88586	86750.36361	2294.30380
0.88220	86615.41141	2293.30380
0.87854	86480.56180	2292.30380
0.87487	86345.81261	2291.30380
0.87121	86211.16167	2290.30380
0.86755	86076.60679	2289.30380
0.86388	85942.14573	2288.30380
0.86022	85807.77626	2287.30380
0.85655	85673.49609	2286.30380
0.85289	85539.30293	2285.30380
0.84922	85405.19445	2284.30380
0.84556	85271.16829	2283.30380
0.84189	85137.22207	2282.30380
0.83822	85003.35336	2281.30380
0.83455	84869.55973	2280.30380
0.83089	84735.83869	2279.30380
0.82721	84602.18774	2278.30380
0.82354	84468.60432	2277.30380
0.81987	84335.08585	2276.30380
0.81619	84201.62973	2275.30380
0.81252	84068.23328	2274.30380
0.80884	83934.89384	2273.30380
0.80516	83801.60865	2272.30380
0.80147	83668.37496	2271.30380
0.79779	83535.18994	2270.30380
0.79410	83402.05074	2269.30380
0.79041	83268.95446	2268.30380
0.78672	83135.89816	2267.30380
0.78302	83002.87882	2266.30380
0.77933	82869.89342	2265.30380
0.77562	82736.93885	2264.30380
0.77192	82604.01197	2263.30380
0.76821	82471.10958	2262.30380
0.76450	82338.22843	2261.30380
0.76079	82205.36519	2260.30380
0.75707	82072.51649	2259.30380
0.75335	81939.67891	2258.30380
0.74962	81806.84893	2257.30380
0.74589	81674.02300	2256.30380
0.74216	81541.19749	2255.30380
0.73842	81408.36869	2254.30380
0.73467	81275.53282	2253.30380
0.73092	81142.68604	2252.30380
0.72717	81009.82442	2251.30380
0.72341	80876.94395	2250.30380
0.71965	80744.04054	2249.30380
0.71588	80611.11000	2248.30380
0.71210	80478.14808	2247.30380
0.70832	80345.15040	2246.30380
0.70453	80212.11252	2245.30380
0.70073	80079.02987	2244.30380
0.69693	79945.89780	2243.30380
0.69312	79812.71153	2242.30380
0.68931	79679.46618	2241.30380
0.68548	79546.15677	2240.30380
0.68165	79412.77817	2239.30380
0.67781	79279.32514	2238.30380
0.67397	79145.79232	2237.30380
0.67011	79012.17419	2236.30380
0.66625	78878.46511	2235.30380
0.66237	78744.65928	2234.30380
0.65849	78610.75076	2233.30380
0.65460	78476.73345	2232.30380
0.65070	78342.60108	2231.30380
0.64678	78208.34721	2230.30380
0.64286	78073.96521	2229.30380
0.63893	77939.44827	2228.30380
0.63498	77804.78941	2227.30380
0.63103	77669.98140	2226.30380
0.62706	77535.01683	2225.30380
0.62308	77399.88806	2224.30380
0.61909	77264.58721	2223.30380
0.61508	77129.10616	2222.30380
0.61106	76993.43654	2221.30380
0.60703	76857.56972	2220.30380
0.60299	76721.49676	2219.30380
0.59892	76585.20845	2218.30380
0.59485	76448.69529	2217.30380
0.59076	76311.94742	2216.30380
0.58665	76174.95466	2215.30380
0.58252	76037.70649	2214.30380
0.57838	75900.19198	2213.30380
0.57422	75762.39983	2212.30380
0.57005	75624.31832	2211.30380
0.56585	75485.93530	2210.30380
0.56163	75347.23816	2209.30380
0.55740	75208.21378	2208.30380
0.55314	75068.84855	2207.30380
0.54886	74929.12832	2206.30380
0.54457	74789.03835	2205.30380
0.54024	74648.56331	2204.30380
0.53590	74507.68722	2203.30380
0.53153	74366.39340	2202.30380
0.52713	74224.66449	2201.30380
0.52271	74082.48231	2200.30380
0.51826	73939.82789	2199.30380
0.51378	73796.68139	2198.30380
0.50928	73653.02204	2197.30380
0.50474	73508.82808	2196.30380
0.50018	73364.07667	2195.30380
0.49558	73218.74388	2194.30380
0.49095	73072.80454	2193.30380
0.48628	72926.23220	2192.30380
0.48158	72778.99899	2191.30380
0.47683	72631.07558	2190.30380
0.47205	72482.43099	2189.30380
0.46723	72333.03254	2188.30380
0.46237	72182.84565	2187.30380
0.45747	72031.83371	2186.30380
0.45251	71879.95792	2185.30380
0.44751	71727.17709	2184.30380
0.44246	71573.44745	2183.30380
0.43736	71418.72427	2182.30380
0.43220	71262.95842	2181.30380
0.42699	71106.09789	2180.30380
0.42172	70948.08581	2179.30380
0.41638	70788.86124	2178.30380
0.41098	70628.35876	2177.30380
0.40551	70466.50799	2176.30380
0.39996	70303.23309	2175.30380
0.39434	70138.45211	2174.30380
0.38864	69972.07632	2173.30380
0.38285	69804.00938	2172.30380
0.37697	69634.14648	2171.30380
0.37099	69462.37319	2170.30380
0.36492	69288.56425	2169.30380
0.35873	69112.58209	2168.30380
0.35243	68934.27511	2167.30380
0.34600	68753.47560	2166.30380
0.33944	68569.99734	2165.30380
0.33274	68383.63258	2164.30380
0.32589	68194.14855	2163.30380
0.31886	68001.28303	2162.30380
0.31166	67804.73899	2161.30380
0.30426	67604.17792	2160.30380
0.29665	67399.21137	2159.30380
0.28879	67189.39022	2158.30380
0.28068	66974.19081	2157.30380
0.27228	66752.99679	2156.30380
0.26355	66525.07489	2155.30380
0.25445	66289.54205	2154.30380
0.24493	66045.31977	2153.30380
0.23493	65791.06921	2152.30380
0.22437	65525.09602	2151.30380
0.21314	65245.20615	2150.30380
0.20111	64948.47800	2149.30380
0.18807	64630.88403	2148.30380
0.17377	64286.62178	2147.30380
0.15777	63906.83317	2146.30380
0.13939	63476.88025	2145.30380
0.11734	62969.65374	2144.30380
0.08880	62325.48273	2143.30380
0.04589	61377.70357	2142.30380
0.00271	60433.26517	2141.50693
