Mole fraction of liquid	Heat per mole [J]	Temperature [K]
1.00000	91769.10504	2337.33260
0.99998	91764.30381	2337.23697
0.99615	91620.97955	2336.23697
0.99232	91477.82213	2335.23697
0.98850	91334.82976	2334.23697
0.98468	91192.00063	2333.23697
0.98086	91049.33295	2332.23697
0.97705	90906.82487	2331.23697
0.97324	90764.47456	2330.23697
0.96943	90622.28019	2329.23697
0.96562	90480.23988	2328.23697
0.96181	90338.35177	2327.23697
0.95801	90196.61398	2326.23697
0.95421	90055.02462	2325.23697
0.95041	89913.58177	2324.23697
0.94661	89772.28351	2323.23697
0.94282	89631.12791	2322.23697
0.93902	89490.11302	2321.23697
0.93523	89349.23688	2320.23697
0.93144	89208.49750	2319.23697
0.92765	89067.89289	2318.23697
0.92386	88927.42104	2317.23697
0.92008	88787.07993	2316.23697
0.91629	88646.86750	2315.23697
0.91251	88506.78170	2314.23697
0.90873	88366.82045	2313.23697
0.90494	88226.98164	2312.23697
0.90116	88087.26317	2311.23697
0.89738	87947.66288	2310.23697
0.89361	87808.17864	2309.23697
0.88983	87668.80825	2308.23697
0.88605	87529.54952	2307.23697
0.88227	87390.40022	2306.23697
0.87850	87251.35812	2305.23697
0.87472	87112.42094	2304.23697
0.87094	86973.58639	2303.23697
0.86717	86834.85215	2302.23697
0.86339	86696.21589	2301.23697
0.85961	86557.67523	2300.23697
0.85584	86419.22777	2299.23697
0.85206	86280.87110	2298.23697
0.84828	86142.60276	2297.23697
0.84451	86004.42027	2296.23697
0.84073	85866.32112	2295.23697
0.83695	85728.30276	2294.23697
0.83317	85590.36261	2293.23697
0.82939	85452.49807	2292.23697
0.82561	85314.70649	2291.23697
0.82182	85176.98519	2290.23697
0.81804	85039.33145	2289.23697
0.81425	84901.74253	2288.23697
0.81047	84764.21562	2287.23697
0.80668	84626.74790	2286.23697
0.80289	84489.33650	2285.23697
0.79909	84351.97849	2284.23697
0.79530	84214.67091	2283.23697
0.79150	84077.41076	2282.23697
0.78770	83940.19499	2281.23697
0.78390	83803.02049	2280.23697
0.78010	83665.88412	2279.23697
0.77629	83528.78267	2278.23697
0.77248	83391.71289	2277.23697
0.76867	83254.67147	2276.23697
0.76485	83117.65503	2275.23697
0.76103	82980.66017	2274.23697
0.75721	82843.68338	2273.23697
0.75338	82706.72113	2272.23697
0.74955	82569.76979	2271.23697
0.74571	82432.82570	2270.23697
0.74187	82295.88510	2269.23697
0.73803	82158.94417	2268.23697
0.73418	82021.99902	2267.23697
0.73033	81885.04567	2266.23697
0.72647	81748.08009	2265.23697
0.72261	81611.09813	2264.23697
0.71874	81474.09558	2263.23697
0.71487	81337.06814	2262.23697
0.71099	81200.01142	2261.23697
0.70711	81062.92091	2260.23697
0.70321	80925.79203	2259.23697
0.69932	80788.62010	2258.23697
0.69541	80651.40032	2257.23697
0.69150	80514.12779	2256.23697
0.68759	80376.79748	2255.23697
0.68366	80239.40426	2254.23697
0.67973	80101.94288	2253.23697
0.67579	79964.40795	2252.23697
0.67184	79826.79395	2251.23697
0.66788	79689.09522	2250.23697
0.66392	79551.30598	2249.23697
0.65995	79413.42026	2248.23697
0.65596	79275.43198	2247.23697
0.65197	79137.33487	2246.23697
0.64797	78999.12249	2245.23697
0.64396	78860.78824	2244.23697
0.63994	78722.32534	2243.23697
0.63590	78583.72679	2242.23697
0.63186	78444.98544	2241.23697
0.62780	78306.09388	2240.23697
0.62374	78167.04451	2239.23697
0.61966	78027.82952	2238.23697
0.61557	77888.44082	2237.23697
0.61146	77748.87012	2236.23697
0.60735	77609.10883	2235.23697
0.60322	77469.14810	2234.23697
0.59907	77328.97883	2233.23697
0.59491	77188.59156	2232.23697
0.59074	77047.97657	2231.23697
0.58655	76907.12378	2230.23697
0.58234	76766.02279	2229.23697
0.57812	76624.66281	2228.23697
0.57388	76483.03268	2227.23697
0.56962	76341.12086	2226.23697
0.56535	76198.91536	2225.23697
0.56105	76056.40375	2224.23697
0.55674	75913.57315	2223.23697
0.55241	75770.41015	2222.23697
0.54805	75626.90085	2221.23697
0.54368	75483.03079	2220.23697
0.53928	75338.78491	2219.23697
0.53486	75194.14755	2218.23697
0.53042	75049.10237	2217.23697
0.52595	74903.63237	2216.23697
0.52145	74757.71979	2215.23697
0.51693	74611.34608	2214.23697
0.51239	74464.49187	2213.23697
0.50781	74317.13689	2212.23697
0.50321	74169.25994	2211.23697
0.49858	74020.83878	2210.23697
0.49391	73871.85013	2209.23697
0.48922	73722.26953	2208.23697
0.48448	73572.07129	2207.23697
0.47972	73421.22839	2206.23697
0.47492	73269.71239	2205.23697
0.47008	73117.49333	2204.23697
0.46520	72964.53959	2203.23697
0.46028	72810.81778	2202.23697
0.45532	72656.29260	2201.23697
0.45031	72500.92665	2200.23697
0.44526	72344.68030	2199.23697
0.44016	72187.51149	2198.23697
0.43501	72029.37548	2197.23697
0.42981	71870.22464	2196.23697
0.42455	71710.00820	2195.23697
0.41923	71548.67192	2194.23697
0.41386	71386.15776	2193.23697
0.40842	71222.40353	2192.23697
0.40291	71057.34242	2191.23697
0.39734	70890.90256	2190.23697
0.39169	70723.00645	2189.23697
0.38596	70553.57032	2188.23697
0.38016	70382.50343	2187.23697
0.37426	70209.70724	2186.23697
0.36828	70035.07445	2185.23697
0.36219	69858.48787	2184.23697
0.35601	69679.81915	2183.23697
0.34971	69498.93168	2182.23697
0.34330	69315.66915	2181.23697
0.33676	69129.86181	2180.23697
0.33008	68941.31796	2179.23697
0.32326	68749.82364	2178.23697
0.31629	68555.13884	2177.23697
0.30915	68356.99293	2176.23697
0.30182	68155.07902	2175.23697
0.29429	67949.04688	2174.23697
0.28654	67738.49407	2173.23697
0.27856	67522.95451	2172.23697
0.27030	67301.88379	2171.23697
0.26175	67074.63980	2170.23697
0.25287	66840.45679	2169.23697
0.24361	66598.41011	2168.23697
0.23391	66347.36692	2167.23697
0.22372	66085.91575	2166.23697
0.21295	65812.26271	2165.23697
0.20149	65524.07305	2164.23697
0.18919	65218.21901	2163.23697
0.17585	64890.35736	2162.23697
0.16116	64534.17556	2161.23697
0.14468	64139.93448	2160.23697
0.12563	63691.34668	2159.23697
0.10258	63157.95330	2158.23697
0.07244	62473.84053	2157.23697
0.02857	61497.89088	2156.23697
0.00000	60857.05665	2155.44010
