Mole fraction of liquid	Heat per mole [J]	Temperature [K]
1.00000	1.05085E5	2596.61705
0.99998	1.05081E5	2596.52142
0.99712	1.04947E5	2595.52142
0.99427	1.04814E5	2594.52142
0.99143	1.04682E5	2593.52142
0.98859	1.04549E5	2592.52142
0.98576	1.04417E5	2591.52142
0.98294	1.04286E5	2590.52142
0.98013	1.04154E5	2589.52142
0.97733	1.04023E5	2588.52142
0.97453	1.03892E5	2587.52142
0.97174	1.03761E5	2586.52142
0.96896	1.03631E5	2585.52142
0.96618	1.03501E5	2584.52142
0.96342	1.03372E5	2583.52142
0.96066	1.03242E5	2582.52142
0.95791	1.03113E5	2581.52142
0.95517	1.02984E5	2580.52142
0.95243	1.02856E5	2579.52142
0.94970	1.02728E5	2578.52142
0.94698	1.02600E5	2577.52142
0.94427	1.02472E5	2576.52142
0.94156	1.02345E5	2575.52142
0.93886	1.02218E5	2574.52142
0.93617	1.02091E5	2573.52142
0.93348	1.01964E5	2572.52142
0.93081	1.01838E5	2571.52142
0.92814	1.01712E5	2570.52142
0.92547	1.01586E5	2569.52142
0.92282	1.01461E5	2568.52142
0.92017	1.01336E5	2567.52142
0.91753	1.01211E5	2566.52142
0.91489	1.01086E5	2565.52142
0.91227	1.00962E5	2564.52142
0.90965	1.00838E5	2563.52142
0.90703	1.00714E5	2562.52142
0.90443	1.00591E5	2561.52142
0.90183	1.00467E5	2560.52142
0.89923	1.00345E5	2559.52142
0.89665	1.00222E5	2558.52142
0.89407	1.00099E5	2557.52142
0.89150	99977.14152	2556.52142
0.88893	99855.20750	2555.52142
0.88637	99733.53224	2554.52142
0.88382	99612.11458	2553.52142
0.88127	99490.95337	2552.52142
0.87873	99370.04746	2551.52142
0.87620	99249.39571	2550.52142
0.87367	99128.99698	2549.52142
0.87115	99008.85013	2548.52142
0.86864	98888.95405	2547.52142
0.86613	98769.30760	2546.52142
0.86363	98649.90967	2545.52142
0.86114	98530.75914	2544.52142
0.85865	98411.85492	2543.52142
0.85617	98293.19589	2542.52142
0.85370	98174.78097	2541.52142
0.85123	98056.60905	2540.52142
0.84877	97938.67905	2539.52142
0.84631	97820.98989	2538.52142
0.84386	97703.54049	2537.52142
0.84142	97586.32977	2536.52142
0.83898	97469.35668	2535.52142
0.83655	97352.62014	2534.52142
0.83412	97236.11910	2533.52142
0.83170	97119.85251	2532.52142
0.82929	97003.81931	2531.52142
0.82688	96888.01846	2530.52142
0.82448	96772.44891	2529.52142
0.82209	96657.10965	2528.52142
0.81970	96541.99963	2527.52142
0.81732	96427.11782	2526.52142
0.81494	96312.46322	2525.52142
0.81257	96198.03479	2524.52142
0.81020	96083.83152	2523.52142
0.80784	95969.85242	2522.52142
0.80549	95856.09646	2521.52142
0.80314	95742.56266	2520.52142
0.80079	95629.25001	2519.52142
0.79846	95516.15753	2518.52142
0.79613	95403.28422	2517.52142
0.79380	95290.62911	2516.52142
0.79148	95178.19122	2515.52142
0.78916	95065.96957	2514.52142
0.78686	94953.96319	2513.52142
0.78455	94842.17111	2512.52142
0.78225	94730.59237	2511.52142
0.77996	94619.22601	2510.52142
0.77767	94508.07109	2509.52142
0.77539	94397.12664	2508.52142
0.77312	94286.39172	2507.52142
0.77084	94175.86538	2506.52142
0.76858	94065.54670	2505.52142
0.76632	93955.43473	2504.52142
0.76406	93845.52854	2503.52142
0.76181	93735.82721	2502.52142
0.75957	93626.32981	2501.52142
0.75733	93517.03542	2500.52142
0.75509	93407.94312	2499.52142
0.75287	93299.05201	2498.52142
0.75064	93190.36116	2497.52142
0.74842	93081.86969	2496.52142
0.74621	92973.57668	2495.52142
0.74400	92865.48123	2494.52142
0.74180	92757.58246	2493.52142
0.73960	92649.87947	2492.52142
0.73740	92542.37137	2491.52142
0.73522	92435.05728	2490.52142
0.73303	92327.93631	2489.52142
0.73085	92221.00759	2488.52142
0.72868	92114.27025	2487.52142
0.72651	92007.72342	2486.52142
0.72435	91901.36621	2485.52142
0.72219	91795.19778	2484.52142
0.72003	91689.21727	2483.52142
0.71788	91583.42380	2482.52142
0.71574	91477.81653	2481.52142
0.71360	91372.39460	2480.52142
0.71146	91267.15717	2479.52142
0.70933	91162.10340	2478.52142
0.70720	91057.23243	2477.52142
0.70508	90952.54343	2476.52142
0.70296	90848.03557	2475.52142
0.70085	90743.70800	2474.52142
0.69874	90639.55991	2473.52142
0.69664	90535.59045	2472.52142
0.69454	90431.79882	2471.52142
0.69245	90328.18418	2470.52142
0.69036	90224.74571	2469.52142
0.68827	90121.48261	2468.52142
0.68619	90018.39405	2467.52142
0.68411	89915.47923	2466.52142
0.68204	89812.73734	2465.52142
0.67997	89710.16758	2464.52142
0.67791	89607.76913	2463.52142
0.67585	89505.54121	2462.52142
0.67380	89403.48301	2461.52142
0.67174	89301.59374	2460.52142
0.66970	89199.87261	2459.52142
0.66766	89098.31883	2458.52142
0.66562	88996.93162	2457.52142
0.66358	88895.71017	2456.52142
0.66155	88794.65373	2455.52142
0.65953	88693.76150	2454.52142
0.65751	88593.03271	2453.52142
0.65549	88492.46658	2452.52142
0.65348	88392.06235	2451.52142
0.65147	88291.81923	2450.52142
0.64946	88191.73647	2449.52142
0.64746	88091.81330	2448.52142
0.64546	87992.04896	2447.52142
0.64347	87892.44267	2446.52142
0.64148	87792.99369	2445.52142
0.63949	87693.70126	2444.52142
0.63751	87594.56463	2443.52142
0.63553	87495.58303	2442.52142
0.63356	87396.75572	2441.52142
0.63159	87298.08196	2440.52142
0.62962	87199.56099	2439.52142
0.62766	87101.19207	2438.52142
0.62570	87002.97445	2437.52142
0.62374	86904.90741	2436.52142
0.62179	86806.99019	2435.52142
0.61984	86709.22206	2434.52142
0.61790	86611.60229	2433.52142
0.61596	86514.13013	2432.52142
0.61402	86416.80487	2431.52142
0.61209	86319.62577	2430.52142
0.61016	86222.59210	2429.52142
0.60823	86125.70314	2428.52142
0.60631	86028.95815	2427.52142
0.60439	85932.35643	2426.52142
0.60247	85835.89723	2425.52142
0.60056	85739.57985	2424.52142
0.59865	85643.40357	2423.52142
0.59674	85547.36767	2422.52142
0.59484	85451.47142	2421.52142
0.59294	85355.71413	2420.52142
0.59105	85260.09506	2419.52142
0.58916	85164.61352	2418.52142
0.58727	85069.26879	2417.52142
0.58538	84974.06017	2416.52142
0.58350	84878.98693	2415.52142
0.58162	84784.04839	2414.52142
0.57974	84689.24382	2413.52142
0.57787	84594.57254	2412.52142
0.57600	84500.03382	2411.52142
0.57413	84405.62698	2410.52142
0.57227	84311.35130	2409.52142
0.57041	84217.20609	2408.52142
0.56855	84123.19065	2407.52142
0.56670	84029.30428	2406.52142
0.56485	83935.54629	2405.52142
0.56300	83841.91596	2404.52142
0.56115	83748.41262	2403.52142
0.55931	83655.03556	2402.52142
0.55747	83561.78408	2401.52142
0.55563	83468.65750	2400.52142
0.55380	83375.65512	2399.52142
0.55197	83282.77625	2398.52142
0.55014	83190.02019	2397.52142
0.54832	83097.38625	2396.52142
0.54650	83004.87375	2395.52142
0.54468	82912.48198	2394.52142
0.54286	82820.21027	2393.52142
0.54104	82728.05791	2392.52142
0.53923	82636.02422	2391.52142
0.53742	82544.10851	2390.52142
0.53562	82452.31009	2389.52142
0.53382	82360.62827	2388.52142
0.53201	82269.06235	2387.52142
0.53022	82177.61166	2386.52142
0.52842	82086.27550	2385.52142
0.52663	81995.05318	2384.52142
0.52484	81903.94401	2383.52142
0.52305	81812.94730	2382.52142
0.52126	81722.06236	2381.52142
0.51948	81631.28850	2380.52142
0.51770	81540.62503	2379.52142
0.51592	81450.07126	2378.52142
0.51415	81359.62650	2377.52142
0.51237	81269.29005	2376.52142
0.51060	81179.06123	2375.52142
0.50883	81088.93933	2374.52142
0.50707	80998.92367	2373.52142
0.50530	80909.01356	2372.52142
0.50354	80819.20829	2371.52142
0.50178	80729.50716	2370.52142
0.50002	80639.90949	2369.52142
0.49827	80550.41458	2368.52142
0.49651	80461.02172	2367.52142
0.49476	80371.73022	2366.52142
0.49301	80282.53937	2365.52142
0.49127	80193.44847	2364.52142
0.48952	80104.45681	2363.52142
0.48778	80015.56370	2362.52142
0.48604	79926.76843	2361.52142
0.48430	79838.07028	2360.52142
0.48256	79749.46855	2359.52142
0.48083	79660.96252	2358.52142
0.47909	79572.55149	2357.52142
0.47736	79484.23473	2356.52142
0.47563	79396.01153	2355.52142
0.47390	79307.88117	2354.52142
0.47218	79219.84292	2353.52142
0.47045	79131.89608	2352.52142
0.46873	79044.03990	2351.52142
0.46701	78956.27366	2350.52142
0.46529	78868.59664	2349.52142
0.46357	78781.00809	2348.52142
0.46186	78693.50728	2347.52142
0.46014	78606.09348	2346.52142
0.45843	78518.76593	2345.52142
0.45672	78431.52391	2344.52142
0.45501	78344.36665	2343.52142
0.45330	78257.29341	2342.52142
0.45159	78170.30344	2341.52142
0.44988	78083.39598	2340.52142
0.44818	77996.57026	2339.52142
0.44648	77909.82552	2338.52142
0.44478	77823.16100	2337.52142
0.44308	77736.57592	2336.52142
0.44138	77650.06950	2335.52142
0.43968	77563.64097	2334.52142
0.43798	77477.28954	2333.52142
0.43629	77391.01443	2332.52142
0.43459	77304.81483	2331.52142
0.43290	77218.68995	2330.52142
0.43121	77132.63899	2329.52142
0.42952	77046.66113	2328.52142
0.42783	76960.75557	2327.52142
0.42614	76874.92149	2326.52142
0.42445	76789.15807	2325.52142
0.42276	76703.46446	2324.52142
0.42107	76617.83985	2323.52142
0.41939	76532.28338	2322.52142
0.41770	76446.79421	2321.52142
0.41602	76361.37148	2320.52142
0.41434	76276.01434	2319.52142
0.41265	76190.72192	2318.52142
0.41097	76105.49333	2317.52142
0.40929	76020.32771	2316.52142
0.40761	75935.22417	2315.52142
0.40593	75850.18180	2314.52142
0.40425	75765.19970	2313.52142
0.40257	75680.27696	2312.52142
0.40089	75595.41266	2311.52142
0.39921	75510.60586	2310.52142
0.39754	75425.85565	2309.52142
0.39586	75341.16105	2308.52142
0.39418	75256.52113	2307.52142
0.39250	75171.93491	2306.52142
0.39083	75087.40141	2305.52142
0.38915	75002.91966	2304.52142
0.38747	74918.48865	2303.52142
0.38580	74834.10738	2302.52142
0.38412	74749.77483	2301.52142
0.38244	74665.48996	2300.52142
0.38077	74581.25175	2299.52142
0.37909	74497.05913	2298.52142
0.37741	74412.91103	2297.52142
0.37573	74328.80639	2296.52142
0.37406	74244.74410	2295.52142
0.37238	74160.72306	2294.52142
0.37070	74076.74214	2293.52142
0.36902	73992.80023	2292.52142
0.36734	73908.89616	2291.52142
0.36566	73825.02876	2290.52142
0.36398	73741.19687	2289.52142
0.36230	73657.39927	2288.52142
0.36062	73573.63476	2287.52142
0.35894	73489.90211	2286.52142
0.35726	73406.20006	2285.52142
0.35557	73322.52734	2284.52142
0.35389	73238.88267	2283.52142
0.35220	73155.26474	2282.52142
0.35052	73071.67222	2281.52142
0.34883	72988.10376	2280.52142
0.34714	72904.55800	2279.52142
0.34545	72821.03354	2278.52142
0.34376	72737.52896	2277.52142
0.34207	72654.04282	2276.52142
0.34037	72570.57365	2275.52142
0.33868	72487.11998	2274.52142
0.33698	72403.68027	2273.52142
0.33528	72320.25299	2272.52142
0.33358	72236.83657	2271.52142
0.33188	72153.42939	2270.52142
0.33017	72070.02984	2269.52142
0.32847	71986.63624	2268.52142
0.32676	71903.24691	2267.52142
0.32505	71819.86011	2266.52142
0.32334	71736.47408	2265.52142
0.32162	71653.08702	2264.52142
0.31991	71569.69710	2263.52142
0.31819	71486.30244	2262.52142
0.31647	71402.90113	2261.52142
0.31474	71319.49121	2260.52142
0.31302	71236.07069	2259.52142
0.31129	71152.63752	2258.52142
0.30956	71069.18961	2257.52142
0.30782	70985.72483	2256.52142
0.30608	70902.24099	2255.52142
0.30434	70818.73586	2254.52142
0.30260	70735.20714	2253.52142
0.30085	70651.65249	2252.52142
0.29910	70568.06951	2251.52142
0.29734	70484.45573	2250.52142
0.29558	70400.80862	2249.52142
0.29382	70317.12560	2248.52142
0.29205	70233.40400	2247.52142
0.29028	70149.64110	2246.52142
0.28851	70065.83410	2245.52142
0.28673	69981.98011	2244.52142
0.28494	69898.07618	2243.52142
0.28315	69814.11927	2242.52142
0.28136	69730.10625	2241.52142
0.27956	69646.03390	2240.52142
0.27776	69561.89890	2239.52142
0.27595	69477.69786	2238.52142
0.27413	69393.42724	2237.52142
0.27231	69309.08344	2236.52142
0.27049	69224.66271	2235.52142
0.26866	69140.16120	2234.52142
0.26682	69055.57494	2233.52142
0.26497	68970.89981	2232.52142
0.26312	68886.13157	2231.52142
0.26127	68801.26583	2230.52142
0.25940	68716.29807	2229.52142
0.25753	68631.22358	2228.52142
0.25565	68546.03751	2227.52142
0.25376	68460.73481	2226.52142
0.25187	68375.31028	2225.52142
0.24996	68289.75850	2224.52142
0.24805	68204.07386	2223.52142
0.24613	68118.25053	2222.52142
0.24420	68032.28244	2221.52142
0.24226	67946.16332	2220.52142
0.24031	67859.88659	2219.52142
0.23836	67773.44545	2218.52142
0.23639	67686.83280	2217.52142
0.23441	67600.04122	2216.52142
0.23242	67513.06300	2215.52142
0.23041	67425.89007	2214.52142
0.22840	67338.51400	2213.52142
0.22637	67250.92599	2212.52142
0.22433	67163.11682	2211.52142
0.22228	67075.07683	2210.52142
0.22022	66986.79589	2209.52142
0.21814	66898.26340	2208.52142
0.21604	66809.46819	2207.52142
0.21393	66720.39854	2206.52142
0.21181	66631.04210	2205.52142
0.20966	66541.38588	2204.52142
0.20751	66451.41617	2203.52142
0.20533	66361.11849	2202.52142
0.20313	66270.47754	2201.52142
0.20092	66179.47713	2200.52142
0.19868	66088.10010	2199.52142
0.19643	65996.32825	2198.52142
0.19415	65904.14222	2197.52142
0.19185	65811.52143	2196.52142
0.18952	65718.44393	2195.52142
0.18717	65624.88631	2194.52142
0.18480	65530.82353	2193.52142
0.18239	65436.22874	2192.52142
0.17996	65341.07318	2191.52142
0.17750	65245.32588	2190.52142
0.17500	65148.95349	2189.52142
0.17247	65051.92000	2188.52142
0.16991	64954.18645	2187.52142
0.16731	64855.71053	2186.52142
0.16466	64756.44625	2185.52142
0.16198	64656.34343	2184.52142
0.15925	64555.34718	2183.52142
0.15648	64453.39892	2182.52142
0.15365	64350.43330	2181.52142
0.15077	64246.37860	2180.52142
0.14783	64141.15332	2179.52142
0.14483	64034.66660	2178.52142
0.14176	63926.81678	2177.52142
0.13862	63817.48942	2176.52142
0.13540	63706.55508	2175.52142
0.13209	63593.86644	2174.52142
0.12869	63479.25465	2173.52142
0.12519	63362.52485	2172.52142
0.12157	63243.45019	2171.52142
0.11783	63121.76422	2170.52142
0.11395	62997.15064	2169.52142
0.10990	62869.22952	2168.52142
0.10568	62737.53819	2167.52142
0.10125	62601.50429	2166.52142
0.09657	62460.40649	2165.52142
0.09161	62313.31544	2164.52142
0.08631	62159.00146	2163.52142
0.08058	61995.78322	2162.52142
0.07432	61821.26506	2161.52142
0.06735	61631.84639	2160.52142
0.05941	61421.71676	2159.52142
0.05000	61180.53608	2158.52142
0.03813	60887.26061	2157.52142
0.02153	60493.46701	2156.52142
0.00000	59995.36109	2155.53330
