Mole fraction of liquid	Heat per mole [J]	Temperature [K]
1.00000	1.13621E5	2779.95090
0.99998	1.13616E5	2779.85528
0.99705	1.13471E5	2778.85528
0.99412	1.13326E5	2777.85528
0.99121	1.13182E5	2776.85528
0.98831	1.13038E5	2775.85528
0.98541	1.12894E5	2774.85528
0.98253	1.12751E5	2773.85528
0.97966	1.12608E5	2772.85528
0.97680	1.12466E5	2771.85528
0.97394	1.12324E5	2770.85528
0.97110	1.12182E5	2769.85528
0.96827	1.12041E5	2768.85528
0.96545	1.11900E5	2767.85528
0.96264	1.11760E5	2766.85528
0.95984	1.11620E5	2765.85528
0.95704	1.11480E5	2764.85528
0.95426	1.11341E5	2763.85528
0.95149	1.11202E5	2762.85528
0.94873	1.11064E5	2761.85528
0.94597	1.10926E5	2760.85528
0.94323	1.10789E5	2759.85528
0.94050	1.10651E5	2758.85528
0.93777	1.10515E5	2757.85528
0.93506	1.10378E5	2756.85528
0.93235	1.10242E5	2755.85528
0.92966	1.10107E5	2754.85528
0.92697	1.09971E5	2753.85528
0.92429	1.09837E5	2752.85528
0.92162	1.09702E5	2751.85528
0.91897	1.09568E5	2750.85528
0.91632	1.09434E5	2749.85528
0.91368	1.09301E5	2748.85528
0.91104	1.09168E5	2747.85528
0.90842	1.09035E5	2746.85528
0.90581	1.08903E5	2745.85528
0.90321	1.08771E5	2744.85528
0.90061	1.08640E5	2743.85528
0.89802	1.08508E5	2742.85528
0.89545	1.08378E5	2741.85528
0.89288	1.08247E5	2740.85528
0.89032	1.08117E5	2739.85528
0.88777	1.07987E5	2738.85528
0.88522	1.07858E5	2737.85528
0.88269	1.07729E5	2736.85528
0.88017	1.07600E5	2735.85528
0.87765	1.07472E5	2734.85528
0.87514	1.07344E5	2733.85528
0.87264	1.07216E5	2732.85528
0.87015	1.07089E5	2731.85528
0.86767	1.06962E5	2730.85528
0.86519	1.06835E5	2729.85528
0.86273	1.06709E5	2728.85528
0.86027	1.06583E5	2727.85528
0.85782	1.06457E5	2726.85528
0.85538	1.06332E5	2725.85528
0.85294	1.06207E5	2724.85528
0.85052	1.06082E5	2723.85528
0.84810	1.05958E5	2722.85528
0.84569	1.05834E5	2721.85528
0.84329	1.05710E5	2720.85528
0.84090	1.05587E5	2719.85528
0.83851	1.05464E5	2718.85528
0.83614	1.05341E5	2717.85528
0.83377	1.05219E5	2716.85528
0.83141	1.05096E5	2715.85528
0.82905	1.04975E5	2714.85528
0.82671	1.04853E5	2713.85528
0.82437	1.04732E5	2712.85528
0.82204	1.04611E5	2711.85528
0.81971	1.04491E5	2710.85528
0.81740	1.04370E5	2709.85528
0.81509	1.04251E5	2708.85528
0.81279	1.04131E5	2707.85528
0.81050	1.04012E5	2706.85528
0.80821	1.03893E5	2705.85528
0.80594	1.03774E5	2704.85528
0.80367	1.03655E5	2703.85528
0.80140	1.03537E5	2702.85528
0.79915	1.03420E5	2701.85528
0.79690	1.03302E5	2700.85528
0.79466	1.03185E5	2699.85528
0.79243	1.03068E5	2698.85528
0.79020	1.02951E5	2697.85528
0.78798	1.02835E5	2696.85528
0.78577	1.02719E5	2695.85528
0.78356	1.02603E5	2694.85528
0.78136	1.02487E5	2693.85528
0.77917	1.02372E5	2692.85528
0.77699	1.02257E5	2691.85528
0.77481	1.02143E5	2690.85528
0.77264	1.02028E5	2689.85528
0.77048	1.01914E5	2688.85528
0.76832	1.01800E5	2687.85528
0.76618	1.01687E5	2686.85528
0.76403	1.01573E5	2685.85528
0.76190	1.01460E5	2684.85528
0.75977	1.01348E5	2683.85528
0.75765	1.01235E5	2682.85528
0.75553	1.01123E5	2681.85528
0.75342	1.01011E5	2680.85528
0.75132	1.00899E5	2679.85528
0.74922	1.00788E5	2678.85528
0.74714	1.00677E5	2677.85528
0.74505	1.00566E5	2676.85528
0.74298	1.00455E5	2675.85528
0.74091	1.00345E5	2674.85528
0.73885	1.00235E5	2673.85528
0.73679	1.00125E5	2672.85528
0.73474	1.00016E5	2671.85528
0.73269	99906.21888	2670.85528
0.73066	99797.14949	2669.85528
0.72863	99688.33315	2668.85528
0.72660	99579.76870	2667.85528
0.72458	99471.45498	2666.85528
0.72257	99363.39085	2665.85528
0.72057	99255.57514	2664.85528
0.71857	99148.00672	2663.85528
0.71657	99040.68447	2662.85528
0.71458	98933.60724	2661.85528
0.71260	98826.77391	2660.85528
0.71063	98720.18338	2659.85528
0.70866	98613.83453	2658.85528
0.70670	98507.72625	2657.85528
0.70474	98401.85745	2656.85528
0.70279	98296.22704	2655.85528
0.70084	98190.83392	2654.85528
0.69890	98085.67703	2653.85528
0.69697	97980.75528	2652.85528
0.69504	97876.06760	2651.85528
0.69312	97771.61294	2650.85528
0.69120	97667.39022	2649.85528
0.68929	97563.39841	2648.85528
0.68739	97459.63646	2647.85528
0.68549	97356.10332	2646.85528
0.68360	97252.79796	2645.85528
0.68171	97149.71934	2644.85528
0.67983	97046.86645	2643.85528
0.67795	96944.23827	2642.85528
0.67608	96841.83378	2641.85528
0.67422	96739.65198	2640.85528
0.67236	96637.69185	2639.85528
0.67050	96535.95241	2638.85528
0.66865	96434.43266	2637.85528
0.66681	96333.13161	2636.85528
0.66497	96232.04828	2635.85528
0.66314	96131.18170	2634.85528
0.66132	96030.53089	2633.85528
0.65949	95930.09489	2632.85528
0.65768	95829.87274	2631.85528
0.65587	95729.86347	2630.85528
0.65406	95630.06614	2629.85528
0.65226	95530.47980	2628.85528
0.65047	95431.10351	2627.85528
0.64868	95331.93633	2626.85528
0.64690	95232.97733	2625.85528
0.64512	95134.22559	2624.85528
0.64334	95035.68017	2623.85528
0.64157	94937.34017	2622.85528
0.63981	94839.20467	2621.85528
0.63805	94741.27277	2620.85528
0.63630	94643.54355	2619.85528
0.63455	94546.01613	2618.85528
0.63281	94448.68960	2617.85528
0.63107	94351.56308	2616.85528
0.62934	94254.63568	2615.85528
0.62761	94157.90652	2614.85528
0.62589	94061.37474	2613.85528
0.62417	93965.03944	2612.85528
0.62245	93868.89978	2611.85528
0.62075	93772.95488	2610.85528
0.61904	93677.20389	2609.85528
0.61734	93581.64596	2608.85528
0.61565	93486.28023	2607.85528
0.61396	93391.10586	2606.85528
0.61228	93296.12201	2605.85528
0.61060	93201.32784	2604.85528
0.60892	93106.72253	2603.85528
0.60725	93012.30523	2602.85528
0.60559	92918.07514	2601.85528
0.60393	92824.03143	2600.85528
0.60227	92730.17328	2599.85528
0.60062	92636.49989	2598.85528
0.59897	92543.01044	2597.85528
0.59733	92449.70413	2596.85528
0.59569	92356.58017	2595.85528
0.59406	92263.63775	2594.85528
0.59243	92170.87610	2593.85528
0.59081	92078.29441	2592.85528
0.58919	91985.89191	2591.85528
0.58757	91893.66781	2590.85528
0.58596	91801.62135	2589.85528
0.58436	91709.75175	2588.85528
0.58275	91618.05824	2587.85528
0.58116	91526.54005	2586.85528
0.57956	91435.19644	2585.85528
0.57798	91344.02664	2584.85528
0.57639	91253.02989	2583.85528
0.57481	91162.20546	2582.85528
0.57324	91071.55259	2581.85528
0.57166	90981.07054	2580.85528
0.57010	90890.75858	2579.85528
0.56853	90800.61597	2578.85528
0.56698	90710.64197	2577.85528
0.56542	90620.83588	2576.85528
0.56387	90531.19695	2575.85528
0.56233	90441.72446	2574.85528
0.56078	90352.41772	2573.85528
0.55925	90263.27599	2572.85528
0.55771	90174.29857	2571.85528
0.55618	90085.48475	2570.85528
0.55466	89996.83384	2569.85528
0.55314	89908.34513	2568.85528
0.55162	89820.01792	2567.85528
0.55011	89731.85152	2566.85528
0.54860	89643.84526	2565.85528
0.54709	89555.99842	2564.85528
0.54559	89468.31035	2563.85528
0.54410	89380.78035	2562.85528
0.54260	89293.40775	2561.85528
0.54111	89206.19188	2560.85528
0.53963	89119.13207	2559.85528
0.53815	89032.22765	2558.85528
0.53667	88945.47795	2557.85528
0.53519	88858.88233	2556.85528
0.53372	88772.44011	2555.85528
0.53226	88686.15066	2554.85528
0.53080	88600.01331	2553.85528
0.52934	88514.02742	2552.85528
0.52788	88428.19235	2551.85528
0.52643	88342.50745	2550.85528
0.52499	88256.97209	2549.85528
0.52354	88171.58562	2548.85528
0.52210	88086.34742	2547.85528
0.52067	88001.25687	2546.85528
0.51923	87916.31332	2545.85528
0.51781	87831.51616	2544.85528
0.51638	87746.86476	2543.85528
0.51496	87662.35852	2542.85528
0.51354	87577.99681	2541.85528
0.51213	87493.77902	2540.85528
0.51072	87409.70455	2539.85528
0.50931	87325.77278	2538.85528
0.50791	87241.98312	2537.85528
0.50651	87158.33496	2536.85528
0.50511	87074.82770	2535.85528
0.50372	86991.46075	2534.85528
0.50233	86908.23352	2533.85528
0.50094	86825.14542	2532.85528
0.49956	86742.19585	2531.85528
0.49818	86659.38424	2530.85528
0.49680	86576.71001	2529.85528
0.49543	86494.17257	2528.85528
0.49406	86411.77134	2527.85528
0.49270	86329.50576	2526.85528
0.49134	86247.37525	2525.85528
0.48998	86165.37925	2524.85528
0.48862	86083.51719	2523.85528
0.48727	86001.78850	2522.85528
0.48592	85920.19262	2521.85528
0.48458	85838.72899	2520.85528
0.48323	85757.39707	2519.85528
0.48189	85676.19629	2518.85528
0.48056	85595.12611	2517.85528
0.47923	85514.18597	2516.85528
0.47790	85433.37532	2515.85528
0.47657	85352.69364	2514.85528
0.47525	85272.14037	2513.85528
0.47393	85191.71497	2512.85528
0.47261	85111.41691	2511.85528
0.47130	85031.24566	2510.85528
0.46999	84951.20068	2509.85528
0.46868	84871.28144	2508.85528
0.46738	84791.48741	2507.85528
0.46608	84711.81808	2506.85528
0.46478	84632.27291	2505.85528
0.46348	84552.85139	2504.85528
0.46219	84473.55300	2503.85528
0.46090	84394.37722	2502.85528
0.45962	84315.32354	2501.85528
0.45833	84236.39145	2500.85528
0.45706	84157.58043	2499.85528
0.45578	84078.88999	2498.85528
0.45450	84000.31961	2497.85528
0.45323	83921.86880	2496.85528
0.45197	83843.53704	2495.85528
0.45070	83765.32385	2494.85528
0.44944	83687.22873	2493.85528
0.44818	83609.25118	2492.85528
0.44692	83531.39071	2491.85528
0.44567	83453.64682	2490.85528
0.44442	83376.01904	2489.85528
0.44317	83298.50688	2488.85528
0.44193	83221.10984	2487.85528
0.44069	83143.82745	2486.85528
0.43945	83066.65923	2485.85528
0.43821	82989.60470	2484.85528
0.43698	82912.66338	2483.85528
0.43575	82835.83480	2482.85528
0.43452	82759.11849	2481.85528
0.43329	82682.51397	2480.85528
0.43207	82606.02078	2479.85528
0.43085	82529.63845	2478.85528
0.42963	82453.36651	2477.85528
0.42842	82377.20451	2476.85528
0.42721	82301.15197	2475.85528
0.42600	82225.20845	2474.85528
0.42479	82149.37348	2473.85528
0.42359	82073.64660	2472.85528
0.42238	81998.02737	2471.85528
0.42119	81922.51534	2470.85528
0.41999	81847.11004	2469.85528
0.41880	81771.81103	2468.85528
0.41761	81696.61787	2467.85528
0.41642	81621.53010	2466.85528
0.41523	81546.54730	2465.85528
0.41405	81471.66900	2464.85528
0.41287	81396.89478	2463.85528
0.41169	81322.22420	2462.85528
0.41051	81247.65681	2461.85528
0.40934	81173.19218	2460.85528
0.40817	81098.82989	2459.85528
0.40700	81024.56949	2458.85528
0.40583	80950.41055	2457.85528
0.40467	80876.35266	2456.85528
0.40351	80802.39537	2455.85528
0.40235	80728.53827	2454.85528
0.40119	80654.78092	2453.85528
0.40004	80581.12292	2452.85528
0.39889	80507.56383	2451.85528
0.39774	80434.10323	2450.85528
0.39659	80360.74071	2449.85528
0.39545	80287.47586	2448.85528
0.39431	80214.30824	2447.85528
0.39317	80141.23746	2446.85528
0.39203	80068.26310	2445.85528
0.39089	79995.38475	2444.85528
0.38976	79922.60200	2443.85528
0.38863	79849.91443	2442.85528
0.38750	79777.32165	2441.85528
0.38638	79704.82324	2440.85528
0.38525	79632.41881	2439.85528
0.38413	79560.10795	2438.85528
0.38301	79487.89026	2437.85528
0.38189	79415.76534	2436.85528
0.38078	79343.73279	2435.85528
0.37966	79271.79221	2434.85528
0.37855	79199.94320	2433.85528
0.37744	79128.18538	2432.85528
0.37634	79056.51834	2431.85528
0.37523	78984.94170	2430.85528
0.37413	78913.45506	2429.85528
0.37303	78842.05803	2428.85528
0.37193	78770.75022	2427.85528
0.37084	78699.53125	2426.85528
0.36974	78628.40073	2425.85528
0.36865	78557.35826	2424.85528
0.36756	78486.40348	2423.85528
0.36647	78415.53599	2422.85528
0.36539	78344.75542	2421.85528
0.36430	78274.06137	2420.85528
0.36322	78203.45348	2419.85528
0.36214	78132.93135	2418.85528
0.36106	78062.49462	2417.85528
0.35999	77992.14291	2416.85528
0.35891	77921.87583	2415.85528
0.35784	77851.69302	2414.85528
0.35677	77781.59410	2413.85528
0.35570	77711.57870	2412.85528
0.35463	77641.64644	2411.85528
0.35357	77571.79696	2410.85528
0.35251	77502.02988	2409.85528
0.35145	77432.34483	2408.85528
0.35039	77362.74145	2407.85528
0.34933	77293.21936	2406.85528
0.34828	77223.77821	2405.85528
0.34722	77154.41762	2404.85528
0.34617	77085.13723	2403.85528
0.34512	77015.93667	2402.85528
0.34407	76946.81558	2401.85528
0.34303	76877.77360	2400.85528
0.34198	76808.81037	2399.85528
0.34094	76739.92551	2398.85528
0.33990	76671.11869	2397.85528
0.33886	76602.38952	2396.85528
0.33782	76533.73766	2395.85528
0.33678	76465.16274	2394.85528
0.33575	76396.66441	2393.85528
0.33472	76328.24231	2392.85528
0.33369	76259.89608	2391.85528
0.33266	76191.62536	2390.85528
0.33163	76123.42981	2389.85528
0.33060	76055.30906	2388.85528
0.32958	75987.26276	2387.85528
0.32856	75919.29056	2386.85528
0.32753	75851.39209	2385.85528
0.32651	75783.56702	2384.85528
0.32550	75715.81499	2383.85528
0.32448	75648.13564	2382.85528
0.32346	75580.52862	2381.85528
0.32245	75512.99358	2380.85528
0.32144	75445.53018	2379.85528
0.32043	75378.13805	2378.85528
0.31942	75310.81685	2377.85528
0.31841	75243.56623	2376.85528
0.31741	75176.38584	2375.85528
0.31640	75109.27533	2374.85528
0.31540	75042.23435	2373.85528
0.31440	74975.26255	2372.85528
0.31340	74908.35959	2371.85528
0.31240	74841.52511	2370.85528
0.31140	74774.75876	2369.85528
0.31040	74708.06020	2368.85528
0.30941	74641.42908	2367.85528
0.30842	74574.86505	2366.85528
0.30742	74508.36776	2365.85528
0.30643	74441.93687	2364.85528
0.30544	74375.57202	2363.85528
0.30446	74309.27288	2362.85528
0.30347	74243.03908	2361.85528
0.30248	74176.87029	2360.85528
0.30150	74110.76615	2359.85528
0.30052	74044.72631	2358.85528
0.29954	73978.75043	2357.85528
0.29856	73912.83816	2356.85528
0.29758	73846.98915	2355.85528
0.29660	73781.20305	2354.85528
0.29562	73715.47952	2353.85528
0.29465	73649.81819	2352.85528
0.29367	73584.21872	2351.85528
0.29270	73518.68077	2350.85528
0.29173	73453.20397	2349.85528
0.29076	73387.78799	2348.85528
0.28979	73322.43246	2347.85528
0.28882	73257.13703	2346.85528
0.28785	73191.90136	2345.85528
0.28688	73126.72509	2344.85528
0.28592	73061.60786	2343.85528
0.28495	72996.54932	2342.85528
0.28399	72931.54912	2341.85528
0.28303	72866.60690	2340.85528
0.28207	72801.72230	2339.85528
0.28111	72736.89497	2338.85528
0.28015	72672.12455	2337.85528
0.27919	72607.41068	2336.85528
0.27823	72542.75299	2335.85528
0.27727	72478.15113	2334.85528
0.27632	72413.60474	2333.85528
0.27536	72349.11346	2332.85528
0.27441	72284.67691	2331.85528
0.27346	72220.29473	2330.85528
0.27250	72155.96657	2329.85528
0.27155	72091.69205	2328.85528
0.27060	72027.47080	2327.85528
0.26965	71963.30245	2326.85528
0.26870	71899.18663	2325.85528
0.26776	71835.12297	2324.85528
0.26681	71771.11109	2323.85528
0.26586	71707.15062	2322.85528
0.26492	71643.24119	2321.85528
0.26397	71579.38240	2320.85528
0.26303	71515.57388	2319.85528
0.26208	71451.81526	2318.85528
0.26114	71388.10614	2317.85528
0.26020	71324.44613	2316.85528
0.25926	71260.83486	2315.85528
0.25832	71197.27193	2314.85528
0.25738	71133.75694	2313.85528
0.25644	71070.28951	2312.85528
0.25550	71006.86924	2311.85528
0.25456	70943.49573	2310.85528
0.25362	70880.16857	2309.85528
0.25268	70816.88737	2308.85528
0.25175	70753.65171	2307.85528
0.25081	70690.46120	2306.85528
0.24988	70627.31541	2305.85528
0.24894	70564.21394	2304.85528
0.24800	70501.15636	2303.85528
0.24707	70438.14226	2302.85528
0.24614	70375.17122	2301.85528
0.24520	70312.24281	2300.85528
0.24427	70249.35659	2299.85528
0.24334	70186.51214	2298.85528
0.24240	70123.70903	2297.85528
0.24147	70060.94680	2296.85528
0.24054	69998.22503	2295.85528
0.23961	69935.54326	2294.85528
0.23868	69872.90104	2293.85528
0.23774	69810.29792	2292.85528
0.23681	69747.73344	2291.85528
0.23588	69685.20713	2290.85528
0.23495	69622.71854	2289.85528
0.23402	69560.26718	2288.85528
0.23309	69497.85258	2287.85528
0.23216	69435.47427	2286.85528
0.23123	69373.13175	2285.85528
0.23030	69310.82454	2284.85528
0.22937	69248.55214	2283.85528
0.22844	69186.31405	2282.85528
0.22751	69124.10976	2281.85528
0.22658	69061.93877	2280.85528
0.22565	68999.80054	2279.85528
0.22472	68937.69457	2278.85528
0.22379	68875.62031	2277.85528
0.22286	68813.57724	2276.85528
0.22193	68751.56481	2275.85528
0.22100	68689.58247	2274.85528
0.22006	68627.62967	2273.85528
0.21913	68565.70584	2272.85528
0.21820	68503.81041	2271.85528
0.21727	68441.94280	2270.85528
0.21634	68380.10243	2269.85528
0.21540	68318.28870	2268.85528
0.21447	68256.50101	2267.85528
0.21354	68194.73875	2266.85528
0.21261	68133.00130	2265.85528
0.21167	68071.28803	2264.85528
0.21074	68009.59830	2263.85528
0.20980	67947.93147	2262.85528
0.20887	67886.28687	2261.85528
0.20793	67824.66385	2260.85528
0.20699	67763.06171	2259.85528
0.20605	67701.47978	2258.85528
0.20512	67639.91734	2257.85528
0.20418	67578.37370	2256.85528
0.20324	67516.84811	2255.85528
0.20230	67455.33986	2254.85528
0.20136	67393.84818	2253.85528
0.20041	67332.37232	2252.85528
0.19947	67270.91149	2251.85528
0.19853	67209.46491	2250.85528
0.19758	67148.03177	2249.85528
0.19664	67086.61126	2248.85528
0.19569	67025.20253	2247.85528
0.19474	66963.80473	2246.85528
0.19379	66902.41700	2245.85528
0.19284	66841.03845	2244.85528
0.19189	66779.66817	2243.85528
0.19094	66718.30525	2242.85528
0.18998	66656.94873	2241.85528
0.18903	66595.59767	2240.85528
0.18807	66534.25108	2239.85528
0.18711	66472.90795	2238.85528
0.18615	66411.56726	2237.85528
0.18519	66350.22797	2236.85528
0.18423	66288.88899	2235.85528
0.18326	66227.54925	2234.85528
0.18229	66166.20760	2233.85528
0.18133	66104.86291	2232.85528
0.18036	66043.51401	2231.85528
0.17938	65982.15968	2230.85528
0.17841	65920.79869	2229.85528
0.17743	65859.42978	2228.85528
0.17646	65798.05166	2227.85528
0.17548	65736.66299	2226.85528
0.17449	65675.26241	2225.85528
0.17351	65613.84852	2224.85528
0.17252	65552.41988	2223.85528
0.17153	65490.97502	2222.85528
0.17054	65429.51243	2221.85528
0.16954	65368.03053	2220.85528
0.16855	65306.52774	2219.85528
0.16755	65245.00240	2218.85528
0.16654	65183.45281	2217.85528
0.16554	65121.87723	2216.85528
0.16453	65060.27385	2215.85528
0.16352	64998.64083	2214.85528
0.16250	64936.97626	2213.85528
0.16148	64875.27816	2212.85528
0.16046	64813.54450	2211.85528
0.15944	64751.77318	2210.85528
0.15841	64689.96204	2209.85528
0.15738	64628.10884	2208.85528
0.15634	64566.21126	2207.85528
0.15530	64504.26691	2206.85528
0.15425	64442.27333	2205.85528
0.15321	64380.22794	2204.85528
0.15215	64318.12809	2203.85528
0.15110	64255.97103	2202.85528
0.15003	64193.75392	2201.85528
0.14897	64131.47379	2200.85528
0.14790	64069.12757	2199.85528
0.14682	64006.71208	2198.85528
0.14574	63944.22401	2197.85528
0.14465	63881.65990	2196.85528
0.14356	63819.01618	2195.85528
0.14246	63756.28910	2194.85528
0.14135	63693.47480	2193.85528
0.14024	63630.56920	2192.85528
0.13913	63567.56808	2191.85528
0.13800	63504.46702	2190.85528
0.13687	63441.26142	2189.85528
0.13573	63377.94644	2188.85528
0.13459	63314.51703	2187.85528
0.13344	63250.96791	2186.85528
0.13228	63187.29354	2185.85528
0.13111	63123.48809	2184.85528
0.12993	63059.54545	2183.85528
0.12875	62995.45929	2182.85528
0.12755	62931.22301	2181.85528
0.12635	62866.82973	2180.85528
0.12514	62802.27195	2179.85528
0.12391	62737.54173	2178.85528
0.12268	62672.63071	2177.85528
0.12143	62607.53002	2176.85528
0.12018	62542.23028	2175.85528
0.11891	62476.72154	2174.85528
0.11763	62410.99323	2173.85528
0.11634	62345.03411	2172.85528
0.11503	62278.83221	2171.85528
0.11371	62212.37477	2170.85528
0.11237	62145.64814	2169.85528
0.11102	62078.63772	2168.85528
0.10965	62011.32787	2167.85528
0.10827	61943.70177	2166.85528
0.10686	61875.74133	2165.85528
0.10544	61807.42703	2164.85528
0.10400	61738.73780	2163.85528
0.10253	61669.65078	2162.85528
0.10105	61600.14115	2161.85528
0.09954	61530.18190	2160.85528
0.09801	61459.74351	2159.85528
0.09644	61388.79366	2158.85528
0.09486	61317.29683	2157.85528
0.09324	61245.21386	2156.85528
0.09159	61172.50139	2155.85528
0.08990	61099.11126	2154.85528
0.08818	61024.98969	2153.85528
0.08641	60950.07640	2152.85528
0.08461	60874.30342	2151.85528
0.08275	60797.59371	2150.85528
0.08085	60719.85937	2149.85528
0.07889	60640.99947	2148.85528
0.07686	60560.89716	2147.85528
0.07477	60479.41607	2146.85528
0.07261	60396.39544	2145.85528
0.07035	60311.64374	2144.85528
0.06801	60224.92990	2143.85528
0.06555	60135.97107	2142.85528
0.06296	60044.41519	2141.85528
0.06023	59949.81524	2140.85528
0.05732	59851.58993	2139.85528
0.05420	59748.96085	2138.85528
0.05082	59640.84679	2137.85528
0.04710	59525.67312	2136.85528
0.04291	59400.99634	2135.85528
0.03808	59262.66887	2134.85528
0.03221	59102.61811	2133.85528
0.02435	58900.94873	2132.85528
0.01063	58575.99387	2131.85528
