Mole fraction of liquid	Heat per mole [J]	Temperature [K]
1.00000	1.12938E5	2769.30194
0.99998	1.12933E5	2769.20632
0.99732	1.12801E5	2768.20632
0.99467	1.12670E5	2767.20632
0.99202	1.12538E5	2766.20632
0.98939	1.12407E5	2765.20632
0.98676	1.12277E5	2764.20632
0.98414	1.12146E5	2763.20632
0.98154	1.12016E5	2762.20632
0.97894	1.11887E5	2761.20632
0.97635	1.11757E5	2760.20632
0.97377	1.11629E5	2759.20632
0.97120	1.11500E5	2758.20632
0.96863	1.11372E5	2757.20632
0.96608	1.11244E5	2756.20632
0.96354	1.11117E5	2755.20632
0.96100	1.10989E5	2754.20632
0.95847	1.10863E5	2753.20632
0.95596	1.10736E5	2752.20632
0.95345	1.10610E5	2751.20632
0.95095	1.10484E5	2750.20632
0.94846	1.10359E5	2749.20632
0.94597	1.10234E5	2748.20632
0.94350	1.10109E5	2747.20632
0.94103	1.09984E5	2746.20632
0.93858	1.09860E5	2745.20632
0.93613	1.09737E5	2744.20632
0.93369	1.09613E5	2743.20632
0.93126	1.09490E5	2742.20632
0.92883	1.09367E5	2741.20632
0.92642	1.09245E5	2740.20632
0.92401	1.09122E5	2739.20632
0.92161	1.09000E5	2738.20632
0.91922	1.08879E5	2737.20632
0.91684	1.08758E5	2736.20632
0.91446	1.08637E5	2735.20632
0.91210	1.08516E5	2734.20632
0.90974	1.08396E5	2733.20632
0.90739	1.08276E5	2732.20632
0.90505	1.08156E5	2731.20632
0.90271	1.08037E5	2730.20632
0.90039	1.07918E5	2729.20632
0.89807	1.07799E5	2728.20632
0.89576	1.07680E5	2727.20632
0.89346	1.07562E5	2726.20632
0.89116	1.07444E5	2725.20632
0.88888	1.07327E5	2724.20632
0.88660	1.07209E5	2723.20632
0.88432	1.07092E5	2722.20632
0.88206	1.06976E5	2721.20632
0.87980	1.06859E5	2720.20632
0.87755	1.06743E5	2719.20632
0.87531	1.06627E5	2718.20632
0.87308	1.06512E5	2717.20632
0.87085	1.06397E5	2716.20632
0.86863	1.06282E5	2715.20632
0.86642	1.06167E5	2714.20632
0.86422	1.06052E5	2713.20632
0.86202	1.05938E5	2712.20632
0.85983	1.05824E5	2711.20632
0.85765	1.05711E5	2710.20632
0.85547	1.05598E5	2709.20632
0.85330	1.05484E5	2708.20632
0.85114	1.05372E5	2707.20632
0.84899	1.05259E5	2706.20632
0.84684	1.05147E5	2705.20632
0.84470	1.05035E5	2704.20632
0.84257	1.04923E5	2703.20632
0.84044	1.04812E5	2702.20632
0.83833	1.04701E5	2701.20632
0.83621	1.04590E5	2700.20632
0.83411	1.04479E5	2699.20632
0.83201	1.04369E5	2698.20632
0.82992	1.04259E5	2697.20632
0.82784	1.04149E5	2696.20632
0.82576	1.04039E5	2695.20632
0.82369	1.03930E5	2694.20632
0.82162	1.03821E5	2693.20632
0.81957	1.03712E5	2692.20632
0.81751	1.03604E5	2691.20632
0.81547	1.03495E5	2690.20632
0.81343	1.03387E5	2689.20632
0.81140	1.03280E5	2688.20632
0.80938	1.03172E5	2687.20632
0.80736	1.03065E5	2686.20632
0.80535	1.02958E5	2685.20632
0.80334	1.02851E5	2684.20632
0.80134	1.02744E5	2683.20632
0.79935	1.02638E5	2682.20632
0.79737	1.02532E5	2681.20632
0.79539	1.02426E5	2680.20632
0.79341	1.02320E5	2679.20632
0.79145	1.02215E5	2678.20632
0.78949	1.02110E5	2677.20632
0.78753	1.02005E5	2676.20632
0.78558	1.01900E5	2675.20632
0.78364	1.01796E5	2674.20632
0.78170	1.01692E5	2673.20632
0.77977	1.01588E5	2672.20632
0.77785	1.01484E5	2671.20632
0.77593	1.01381E5	2670.20632
0.77402	1.01277E5	2669.20632
0.77212	1.01174E5	2668.20632
0.77022	1.01071E5	2667.20632
0.76832	1.00969E5	2666.20632
0.76643	1.00867E5	2665.20632
0.76455	1.00764E5	2664.20632
0.76268	1.00663E5	2663.20632
0.76081	1.00561E5	2662.20632
0.75894	1.00459E5	2661.20632
0.75708	1.00358E5	2660.20632
0.75523	1.00257E5	2659.20632
0.75338	1.00156E5	2658.20632
0.75154	1.00056E5	2657.20632
0.74971	99955.30300	2656.20632
0.74788	99855.14283	2655.20632
0.74605	99755.19692	2654.20632
0.74423	99655.46430	2653.20632
0.74242	99555.94403	2652.20632
0.74061	99456.63516	2651.20632
0.73881	99357.53675	2650.20632
0.73702	99258.64788	2649.20632
0.73522	99159.96761	2648.20632
0.73344	99061.49501	2647.20632
0.73166	98963.22917	2646.20632
0.72989	98865.16918	2645.20632
0.72812	98767.31413	2644.20632
0.72635	98669.66310	2643.20632
0.72459	98572.21522	2642.20632
0.72284	98474.96957	2641.20632
0.72109	98377.92527	2640.20632
0.71935	98281.08144	2639.20632
0.71761	98184.43720	2638.20632
0.71588	98087.99167	2637.20632
0.71416	97991.74398	2636.20632
0.71243	97895.69328	2635.20632
0.71072	97799.83869	2634.20632
0.70901	97704.17936	2633.20632
0.70730	97608.71444	2632.20632
0.70560	97513.44309	2631.20632
0.70391	97418.36446	2630.20632
0.70222	97323.47772	2629.20632
0.70053	97228.78202	2628.20632
0.69885	97134.27656	2627.20632
0.69717	97039.96049	2626.20632
0.69550	96945.83300	2625.20632
0.69384	96851.89328	2624.20632
0.69218	96758.14051	2623.20632
0.69052	96664.57389	2622.20632
0.68887	96571.19261	2621.20632
0.68723	96477.99589	2620.20632
0.68558	96384.98292	2619.20632
0.68395	96292.15291	2618.20632
0.68232	96199.50509	2617.20632
0.68069	96107.03866	2616.20632
0.67907	96014.75286	2615.20632
0.67745	95922.64691	2614.20632
0.67584	95830.72004	2613.20632
0.67423	95738.97148	2612.20632
0.67263	95647.40049	2611.20632
0.67103	95556.00629	2610.20632
0.66944	95464.78815	2609.20632
0.66785	95373.74530	2608.20632
0.66627	95282.87701	2607.20632
0.66469	95192.18253	2606.20632
0.66311	95101.66114	2605.20632
0.66154	95011.31209	2604.20632
0.65998	94921.13466	2603.20632
0.65842	94831.12812	2602.20632
0.65686	94741.29175	2601.20632
0.65531	94651.62483	2600.20632
0.65376	94562.12666	2599.20632
0.65222	94472.79652	2598.20632
0.65068	94383.63370	2597.20632
0.64914	94294.63751	2596.20632
0.64761	94205.80723	2595.20632
0.64609	94117.14219	2594.20632
0.64457	94028.64169	2593.20632
0.64305	93940.30503	2592.20632
0.64154	93852.13154	2591.20632
0.64003	93764.12053	2590.20632
0.63852	93676.27133	2589.20632
0.63702	93588.58327	2588.20632
0.63553	93501.05567	2587.20632
0.63404	93413.68786	2586.20632
0.63255	93326.47919	2585.20632
0.63107	93239.42900	2584.20632
0.62959	93152.53662	2583.20632
0.62812	93065.80141	2582.20632
0.62664	92979.22271	2581.20632
0.62518	92892.79988	2580.20632
0.62372	92806.53228	2579.20632
0.62226	92720.41927	2578.20632
0.62081	92634.46021	2577.20632
0.61936	92548.65446	2576.20632
0.61791	92463.00141	2575.20632
0.61647	92377.50041	2574.20632
0.61503	92292.15085	2573.20632
0.61360	92206.95212	2572.20632
0.61217	92121.90358	2571.20632
0.61074	92037.00463	2570.20632
0.60932	91952.25466	2569.20632
0.60790	91867.65306	2568.20632
0.60649	91783.19922	2567.20632
0.60508	91698.89255	2566.20632
0.60367	91614.73244	2565.20632
0.60227	91530.71831	2564.20632
0.60087	91446.84955	2563.20632
0.59948	91363.12558	2562.20632
0.59809	91279.54582	2561.20632
0.59670	91196.10967	2560.20632
0.59532	91112.81657	2559.20632
0.59394	91029.66593	2558.20632
0.59256	90946.65718	2557.20632
0.59119	90863.78974	2556.20632
0.58982	90781.06305	2555.20632
0.58846	90698.47655	2554.20632
0.58710	90616.02967	2553.20632
0.58574	90533.72184	2552.20632
0.58439	90451.55252	2551.20632
0.58304	90369.52115	2550.20632
0.58169	90287.62717	2549.20632
0.58035	90205.87004	2548.20632
0.57901	90124.24921	2547.20632
0.57768	90042.76415	2546.20632
0.57635	89961.41430	2545.20632
0.57502	89880.19913	2544.20632
0.57369	89799.11810	2543.20632
0.57237	89718.17069	2542.20632
0.57106	89637.35636	2541.20632
0.56974	89556.67458	2540.20632
0.56843	89476.12484	2539.20632
0.56713	89395.70660	2538.20632
0.56582	89315.41936	2537.20632
0.56452	89235.26258	2536.20632
0.56323	89155.23576	2535.20632
0.56193	89075.33839	2534.20632
0.56064	88995.56996	2533.20632
0.55936	88915.92996	2532.20632
0.55807	88836.41788	2531.20632
0.55680	88757.03323	2530.20632
0.55552	88677.77550	2529.20632
0.55425	88598.64421	2528.20632
0.55298	88519.63884	2527.20632
0.55171	88440.75892	2526.20632
0.55045	88362.00395	2525.20632
0.54919	88283.37345	2524.20632
0.54793	88204.86693	2523.20632
0.54668	88126.48391	2522.20632
0.54543	88048.22391	2521.20632
0.54419	87970.08645	2520.20632
0.54294	87892.07106	2519.20632
0.54170	87814.17726	2518.20632
0.54047	87736.40458	2517.20632
0.53923	87658.75256	2516.20632
0.53800	87581.22072	2515.20632
0.53677	87503.80861	2514.20632
0.53555	87426.51577	2513.20632
0.53433	87349.34173	2512.20632
0.53311	87272.28603	2511.20632
0.53190	87195.34823	2510.20632
0.53069	87118.52787	2509.20632
0.52948	87041.82449	2508.20632
0.52827	86965.23766	2507.20632
0.52707	86888.76692	2506.20632
0.52587	86812.41184	2505.20632
0.52468	86736.17196	2504.20632
0.52348	86660.04685	2503.20632
0.52229	86584.03608	2502.20632
0.52110	86508.13920	2501.20632
0.51992	86432.35579	2500.20632
0.51874	86356.68540	2499.20632
0.51756	86281.12762	2498.20632
0.51639	86205.68202	2497.20632
0.51521	86130.34817	2496.20632
0.51404	86055.12564	2495.20632
0.51288	85980.01402	2494.20632
0.51172	85905.01289	2493.20632
0.51055	85830.12182	2492.20632
0.50940	85755.34042	2491.20632
0.50824	85680.66825	2490.20632
0.50709	85606.10492	2489.20632
0.50594	85531.65001	2488.20632
0.50479	85457.30311	2487.20632
0.50365	85383.06383	2486.20632
0.50251	85308.93174	2485.20632
0.50137	85234.90647	2484.20632
0.50024	85160.98760	2483.20632
0.49911	85087.17473	2482.20632
0.49798	85013.46748	2481.20632
0.49685	84939.86544	2480.20632
0.49573	84866.36824	2479.20632
0.49460	84792.97546	2478.20632
0.49349	84719.68673	2477.20632
0.49237	84646.50166	2476.20632
0.49126	84573.41987	2475.20632
0.49015	84500.44097	2474.20632
0.48904	84427.56458	2473.20632
0.48793	84354.79032	2472.20632
0.48683	84282.11782	2471.20632
0.48573	84209.54670	2470.20632
0.48464	84137.07657	2469.20632
0.48354	84064.70708	2468.20632
0.48245	83992.43785	2467.20632
0.48136	83920.26852	2466.20632
0.48027	83848.19870	2465.20632
0.47919	83776.22805	2464.20632
0.47811	83704.35619	2463.20632
0.47703	83632.58276	2462.20632
0.47595	83560.90741	2461.20632
0.47488	83489.32977	2460.20632
0.47381	83417.84948	2459.20632
0.47274	83346.46620	2458.20632
0.47167	83275.17957	2457.20632
0.47061	83203.98922	2456.20632
0.46955	83132.89482	2455.20632
0.46849	83061.89602	2454.20632
0.46743	82990.99247	2453.20632
0.46638	82920.18381	2452.20632
0.46533	82849.46971	2451.20632
0.46428	82778.84983	2450.20632
0.46323	82708.32382	2449.20632
0.46219	82637.89134	2448.20632
0.46115	82567.55206	2447.20632
0.46011	82497.30563	2446.20632
0.45907	82427.15173	2445.20632
0.45804	82357.09002	2444.20632
0.45701	82287.12017	2443.20632
0.45598	82217.24184	2442.20632
0.45495	82147.45472	2441.20632
0.45393	82077.75846	2440.20632
0.45290	82008.15275	2439.20632
0.45188	81938.63726	2438.20632
0.45087	81869.21166	2437.20632
0.44985	81799.87564	2436.20632
0.44884	81730.62888	2435.20632
0.44783	81661.47105	2434.20632
0.44682	81592.40184	2433.20632
0.44581	81523.42093	2432.20632
0.44481	81454.52801	2431.20632
0.44381	81385.72276	2430.20632
0.44281	81317.00488	2429.20632
0.44181	81248.37404	2428.20632
0.44081	81179.82996	2427.20632
0.43982	81111.37230	2426.20632
0.43883	81043.00078	2425.20632
0.43784	80974.71507	2424.20632
0.43686	80906.51489	2423.20632
0.43587	80838.39993	2422.20632
0.43489	80770.36988	2421.20632
0.43391	80702.42445	2420.20632
0.43293	80634.56334	2419.20632
0.43196	80566.78625	2418.20632
0.43098	80499.09289	2417.20632
0.43001	80431.48295	2416.20632
0.42904	80363.95616	2415.20632
0.42808	80296.51221	2414.20632
0.42711	80229.15082	2413.20632
0.42615	80161.87169	2412.20632
0.42519	80094.67453	2411.20632
0.42423	80027.55907	2410.20632
0.42327	79960.52502	2409.20632
0.42232	79893.57208	2408.20632
0.42137	79826.69998	2407.20632
0.42042	79759.90844	2406.20632
0.41947	79693.19717	2405.20632
0.41852	79626.56589	2404.20632
0.41758	79560.01433	2403.20632
0.41664	79493.54221	2402.20632
0.41570	79427.14925	2401.20632
0.41476	79360.83517	2400.20632
0.41382	79294.59971	2399.20632
0.41289	79228.44259	2398.20632
0.41195	79162.36355	2397.20632
0.41102	79096.36230	2396.20632
0.41010	79030.43857	2395.20632
0.40917	78964.59212	2394.20632
0.40825	78898.82265	2393.20632
0.40732	78833.12991	2392.20632
0.40640	78767.51364	2391.20632
0.40548	78701.97357	2390.20632
0.40457	78636.50944	2389.20632
0.40365	78571.12098	2388.20632
0.40274	78505.80794	2387.20632
0.40183	78440.57005	2386.20632
0.40092	78375.40707	2385.20632
0.40001	78310.31872	2384.20632
0.39911	78245.30476	2383.20632
0.39820	78180.36493	2382.20632
0.39730	78115.49897	2381.20632
0.39640	78050.70664	2380.20632
0.39550	77985.98767	2379.20632
0.39461	77921.34183	2378.20632
0.39371	77856.76886	2377.20632
0.39282	77792.26850	2376.20632
0.39193	77727.84052	2375.20632
0.39104	77663.48467	2374.20632
0.39015	77599.20069	2373.20632
0.38926	77534.98835	2372.20632
0.38838	77470.84740	2371.20632
0.38750	77406.77760	2370.20632
0.38662	77342.77870	2369.20632
0.38574	77278.85047	2368.20632
0.38486	77214.99266	2367.20632
0.38399	77151.20503	2366.20632
0.38311	77087.48736	2365.20632
0.38224	77023.83939	2364.20632
0.38137	76960.26089	2363.20632
0.38050	76896.75163	2362.20632
0.37964	76833.31137	2361.20632
0.37877	76769.93988	2360.20632
0.37791	76706.63692	2359.20632
0.37705	76643.40227	2358.20632
0.37619	76580.23569	2357.20632
0.37533	76517.13696	2356.20632
0.37447	76454.10583	2355.20632
0.37362	76391.14209	2354.20632
0.37276	76328.24551	2353.20632
0.37191	76265.41586	2352.20632
0.37106	76202.65291	2351.20632
0.37021	76139.95644	2350.20632
0.36937	76077.32623	2349.20632
0.36852	76014.76204	2348.20632
0.36768	75952.26367	2347.20632
0.36683	75889.83088	2346.20632
0.36599	75827.46346	2345.20632
0.36515	75765.16119	2344.20632
0.36432	75702.92384	2343.20632
0.36348	75640.75120	2342.20632
0.36265	75578.64305	2341.20632
0.36181	75516.59918	2340.20632
0.36098	75454.61936	2339.20632
0.36015	75392.70338	2338.20632
0.35932	75330.85103	2337.20632
0.35850	75269.06210	2336.20632
0.35767	75207.33636	2335.20632
0.35685	75145.67361	2334.20632
0.35602	75084.07364	2333.20632
0.35520	75022.53623	2332.20632
0.35438	74961.06118	2331.20632
0.35356	74899.64827	2330.20632
0.35275	74838.29730	2329.20632
0.35193	74777.00806	2328.20632
0.35112	74715.78033	2327.20632
0.35031	74654.61393	2326.20632
0.34949	74593.50863	2325.20632
0.34869	74532.46423	2324.20632
0.34788	74471.48054	2323.20632
0.34707	74410.55733	2322.20632
0.34626	74349.69442	2321.20632
0.34546	74288.89160	2320.20632
0.34466	74228.14866	2319.20632
0.34386	74167.46541	2318.20632
0.34306	74106.84165	2317.20632
0.34226	74046.27717	2316.20632
0.34146	73985.77177	2315.20632
0.34067	73925.32526	2314.20632
0.33987	73864.93744	2313.20632
0.33908	73804.60811	2312.20632
0.33829	73744.33707	2311.20632
0.33749	73684.12413	2310.20632
0.33671	73623.96909	2309.20632
0.33592	73563.87176	2308.20632
0.33513	73503.83194	2307.20632
0.33435	73443.84943	2306.20632
0.33356	73383.92405	2305.20632
0.33278	73324.05560	2304.20632
0.33200	73264.24389	2303.20632
0.33122	73204.48873	2302.20632
0.33044	73144.78992	2301.20632
0.32966	73085.14728	2300.20632
0.32888	73025.56062	2299.20632
0.32811	72966.02973	2298.20632
0.32733	72906.55445	2297.20632
0.32656	72847.13457	2296.20632
0.32579	72787.76991	2295.20632
0.32502	72728.46028	2294.20632
0.32425	72669.20549	2293.20632
0.32348	72610.00537	2292.20632
0.32271	72550.85971	2291.20632
0.32195	72491.76834	2290.20632
0.32118	72432.73107	2289.20632
0.32042	72373.74771	2288.20632
0.31966	72314.81809	2287.20632
0.31890	72255.94201	2286.20632
0.31814	72197.11929	2285.20632
0.31738	72138.34976	2284.20632
0.31662	72079.63322	2283.20632
0.31586	72020.96950	2282.20632
0.31511	71962.35841	2281.20632
0.31435	71903.79977	2280.20632
0.31360	71845.29340	2279.20632
0.31285	71786.83912	2278.20632
0.31209	71728.43675	2277.20632
0.31134	71670.08612	2276.20632
0.31059	71611.78703	2275.20632
0.30985	71553.53931	2274.20632
0.30910	71495.34278	2273.20632
0.30835	71437.19727	2272.20632
0.30761	71379.10259	2271.20632
0.30686	71321.05857	2270.20632
0.30612	71263.06503	2269.20632
0.30538	71205.12179	2268.20632
0.30464	71147.22868	2267.20632
0.30390	71089.38551	2266.20632
0.30316	71031.59211	2265.20632
0.30242	70973.84832	2264.20632
0.30168	70916.15394	2263.20632
0.30095	70858.50880	2262.20632
0.30021	70800.91274	2261.20632
0.29948	70743.36556	2260.20632
0.29875	70685.86711	2259.20632
0.29801	70628.41720	2258.20632
0.29728	70571.01566	2257.20632
0.29655	70513.66231	2256.20632
0.29582	70456.35699	2255.20632
0.29509	70399.09951	2254.20632
0.29437	70341.88971	2253.20632
0.29364	70284.72740	2252.20632
0.29291	70227.61242	2251.20632
0.29219	70170.54460	2250.20632
0.29147	70113.52375	2249.20632
0.29074	70056.54972	2248.20632
0.29002	69999.62231	2247.20632
0.28930	69942.74137	2246.20632
0.28858	69885.90672	2245.20632
0.28786	69829.11818	2244.20632
0.28714	69772.37559	2243.20632
0.28642	69715.67876	2242.20632
0.28570	69659.02754	2241.20632
0.28499	69602.42174	2240.20632
0.28427	69545.86120	2239.20632
0.28356	69489.34574	2238.20632
0.28284	69432.87519	2237.20632
0.28213	69376.44938	2236.20632
0.28142	69320.06813	2235.20632
0.28070	69263.73127	2234.20632
0.27999	69207.43864	2233.20632
0.27928	69151.19005	2232.20632
0.27857	69094.98534	2231.20632
0.27786	69038.82433	2230.20632
0.27715	68982.70685	2229.20632
0.27645	68926.63273	2228.20632
0.27574	68870.60180	2227.20632
0.27503	68814.61388	2226.20632
0.27433	68758.66880	2225.20632
0.27362	68702.76638	2224.20632
0.27292	68646.90646	2223.20632
0.27222	68591.08885	2222.20632
0.27151	68535.31339	2221.20632
0.27081	68479.57990	2220.20632
0.27011	68423.88821	2219.20632
0.26941	68368.23815	2218.20632
0.26871	68312.62953	2217.20632
0.26801	68257.06218	2216.20632
0.26731	68201.53594	2215.20632
0.26661	68146.05061	2214.20632
0.26591	68090.60604	2213.20632
0.26521	68035.20203	2212.20632
0.26452	67979.83842	2211.20632
0.26382	67924.51502	2210.20632
0.26313	67869.23167	2209.20632
0.26243	67813.98817	2208.20632
0.26174	67758.78437	2207.20632
0.26104	67703.62006	2206.20632
0.26035	67648.49509	2205.20632
0.25965	67593.40926	2204.20632
0.25896	67538.36240	2203.20632
0.25827	67483.35433	2202.20632
0.25758	67428.38486	2201.20632
0.25689	67373.45382	2200.20632
0.25620	67318.56102	2199.20632
0.25551	67263.70628	2198.20632
0.25482	67208.88942	2197.20632
0.25413	67154.11025	2196.20632
0.25344	67099.36858	2195.20632
0.25275	67044.66424	2194.20632
0.25206	66989.99704	2193.20632
0.25137	66935.36678	2192.20632
0.25068	66880.77328	2191.20632
0.25000	66826.21636	2190.20632
0.24931	66771.69583	2189.20632
0.24862	66717.21148	2188.20632
0.24794	66662.76314	2187.20632
0.24725	66608.35061	2186.20632
0.24657	66553.97370	2185.20632
0.24588	66499.63221	2184.20632
0.24519	66445.32595	2183.20632
0.24451	66391.05473	2182.20632
0.24383	66336.81835	2181.20632
0.24314	66282.61660	2180.20632
0.24246	66228.44929	2179.20632
0.24177	66174.31623	2178.20632
0.24109	66120.21720	2177.20632
0.24041	66066.15201	2176.20632
0.23972	66012.12045	2175.20632
0.23904	65958.12232	2174.20632
0.23836	65904.15740	2173.20632
0.23767	65850.22551	2172.20632
0.23699	65796.32641	2171.20632
0.23631	65742.45991	2170.20632
0.23563	65688.62579	2169.20632
0.23495	65634.82384	2168.20632
0.23426	65581.05384	2167.20632
0.23358	65527.31557	2166.20632
0.23290	65473.60882	2165.20632
0.23222	65419.93337	2164.20632
0.23154	65366.28899	2163.20632
0.23085	65312.67546	2162.20632
0.23017	65259.09255	2161.20632
0.22949	65205.54005	2160.20632
0.22881	65152.01771	2159.20632
0.22813	65098.52530	2158.20632
0.22745	65045.06260	2157.20632
0.22676	64991.62936	2156.20632
0.22608	64938.22536	2155.20632
0.22540	64884.85034	2154.20632
0.22472	64831.50406	2153.20632
0.22404	64778.18629	2152.20632
0.22335	64724.89677	2151.20632
0.22267	64671.63525	2150.20632
0.22199	64618.40148	2149.20632
0.22130	64565.19521	2148.20632
0.22062	64512.01617	2147.20632
0.21994	64458.86411	2146.20632
0.21926	64405.73876	2145.20632
0.21857	64352.63986	2144.20632
0.21789	64299.56714	2143.20632
0.21720	64246.52032	2142.20632
0.21652	64193.49913	2141.20632
0.21583	64140.50329	2140.20632
0.21515	64087.53251	2139.20632
0.21446	64034.58651	2138.20632
0.21378	63981.66500	2137.20632
0.21309	63928.76769	2136.20632
0.21240	63875.89428	2135.20632
0.21172	63823.04446	2134.20632
0.21103	63770.21794	2133.20632
0.21034	63717.41440	2132.20632
0.20965	63664.63353	2131.20632
0.20896	63611.87501	2130.20632
0.20827	63559.13851	2129.20632
0.20758	63506.42372	2128.20632
0.20689	63453.74369	2127.20632
0.20620	63401.06949	2126.20632
0.20551	63348.41452	2125.20632
0.20482	63295.77842	2124.20632
0.20413	63243.16080	2123.20632
0.20343	63190.56127	2122.20632
0.20274	63137.97943	2121.20632
