Mole fraction of liquid	Heat per mole [J]	Temperature [K]
1.00000	1.22478E5	2947.67908
0.99998	1.22473E5	2947.58346
0.99671	1.22309E5	2946.58346
0.99346	1.22145E5	2945.58346
0.99023	1.21982E5	2944.58346
0.98700	1.21820E5	2943.58346
0.98379	1.21658E5	2942.58346
0.98060	1.21497E5	2941.58346
0.97742	1.21337E5	2940.58346
0.97425	1.21177E5	2939.58346
0.97110	1.21018E5	2938.58346
0.96796	1.20859E5	2937.58346
0.96484	1.20701E5	2936.58346
0.96173	1.20543E5	2935.58346
0.95863	1.20386E5	2934.58346
0.95555	1.20230E5	2933.58346
0.95248	1.20074E5	2932.58346
0.94943	1.19919E5	2931.58346
0.94639	1.19764E5	2930.58346
0.94336	1.19610E5	2929.58346
0.94034	1.19456E5	2928.58346
0.93734	1.19303E5	2927.58346
0.93435	1.19150E5	2926.58346
0.93138	1.18998E5	2925.58346
0.92841	1.18847E5	2924.58346
0.92546	1.18696E5	2923.58346
0.92253	1.18545E5	2922.58346
0.91960	1.18395E5	2921.58346
0.91669	1.18246E5	2920.58346
0.91379	1.18097E5	2919.58346
0.91090	1.17949E5	2918.58346
0.90803	1.17801E5	2917.58346
0.90517	1.17653E5	2916.58346
0.90232	1.17506E5	2915.58346
0.89948	1.17360E5	2914.58346
0.89666	1.17214E5	2913.58346
0.89385	1.17069E5	2912.58346
0.89105	1.16924E5	2911.58346
0.88826	1.16780E5	2910.58346
0.88548	1.16636E5	2909.58346
0.88272	1.16492E5	2908.58346
0.87996	1.16349E5	2907.58346
0.87722	1.16207E5	2906.58346
0.87449	1.16065E5	2905.58346
0.87177	1.15924E5	2904.58346
0.86907	1.15783E5	2903.58346
0.86637	1.15642E5	2902.58346
0.86369	1.15502E5	2901.58346
0.86102	1.15362E5	2900.58346
0.85835	1.15223E5	2899.58346
0.85571	1.15085E5	2898.58346
0.85307	1.14946E5	2897.58346
0.85044	1.14809E5	2896.58346
0.84782	1.14671E5	2895.58346
0.84522	1.14534E5	2894.58346
0.84262	1.14398E5	2893.58346
0.84004	1.14262E5	2892.58346
0.83746	1.14126E5	2891.58346
0.83490	1.13991E5	2890.58346
0.83235	1.13856E5	2889.58346
0.82981	1.13722E5	2888.58346
0.82728	1.13588E5	2887.58346
0.82476	1.13455E5	2886.58346
0.82225	1.13322E5	2885.58346
0.81975	1.13189E5	2884.58346
0.81726	1.13057E5	2883.58346
0.81478	1.12926E5	2882.58346
0.81231	1.12794E5	2881.58346
0.80986	1.12663E5	2880.58346
0.80741	1.12533E5	2879.58346
0.80497	1.12403E5	2878.58346
0.80254	1.12273E5	2877.58346
0.80012	1.12144E5	2876.58346
0.79771	1.12015E5	2875.58346
0.79531	1.11887E5	2874.58346
0.79293	1.11759E5	2873.58346
0.79055	1.11631E5	2872.58346
0.78818	1.11504E5	2871.58346
0.78582	1.11377E5	2870.58346
0.78347	1.11250E5	2869.58346
0.78113	1.11124E5	2868.58346
0.77879	1.10998E5	2867.58346
0.77647	1.10873E5	2866.58346
0.77416	1.10748E5	2865.58346
0.77186	1.10623E5	2864.58346
0.76956	1.10499E5	2863.58346
0.76728	1.10375E5	2862.58346
0.76500	1.10252E5	2861.58346
0.76274	1.10129E5	2860.58346
0.76048	1.10006E5	2859.58346
0.75823	1.09884E5	2858.58346
0.75599	1.09762E5	2857.58346
0.75376	1.09640E5	2856.58346
0.75154	1.09519E5	2855.58346
0.74932	1.09398E5	2854.58346
0.74712	1.09277E5	2853.58346
0.74492	1.09157E5	2852.58346
0.74274	1.09037E5	2851.58346
0.74056	1.08918E5	2850.58346
0.73839	1.08798E5	2849.58346
0.73623	1.08679E5	2848.58346
0.73408	1.08561E5	2847.58346
0.73193	1.08443E5	2846.58346
0.72980	1.08325E5	2845.58346
0.72767	1.08208E5	2844.58346
0.72555	1.08090E5	2843.58346
0.72344	1.07974E5	2842.58346
0.72134	1.07857E5	2841.58346
0.71924	1.07741E5	2840.58346
0.71716	1.07625E5	2839.58346
0.71508	1.07510E5	2838.58346
0.71301	1.07394E5	2837.58346
0.71095	1.07280E5	2836.58346
0.70889	1.07165E5	2835.58346
0.70685	1.07051E5	2834.58346
0.70481	1.06937E5	2833.58346
0.70278	1.06823E5	2832.58346
0.70076	1.06710E5	2831.58346
0.69874	1.06597E5	2830.58346
0.69673	1.06485E5	2829.58346
0.69473	1.06372E5	2828.58346
0.69274	1.06260E5	2827.58346
0.69076	1.06149E5	2826.58346
0.68878	1.06037E5	2825.58346
0.68681	1.05926E5	2824.58346
0.68485	1.05815E5	2823.58346
0.68290	1.05705E5	2822.58346
0.68095	1.05595E5	2821.58346
0.67901	1.05485E5	2820.58346
0.67708	1.05375E5	2819.58346
0.67516	1.05266E5	2818.58346
0.67324	1.05157E5	2817.58346
0.67133	1.05048E5	2816.58346
0.66943	1.04940E5	2815.58346
0.66753	1.04831E5	2814.58346
0.66564	1.04723E5	2813.58346
0.66376	1.04616E5	2812.58346
0.66189	1.04509E5	2811.58346
0.66002	1.04402E5	2810.58346
0.65816	1.04295E5	2809.58346
0.65631	1.04188E5	2808.58346
0.65446	1.04082E5	2807.58346
0.65262	1.03976E5	2806.58346
0.65079	1.03871E5	2805.58346
0.64896	1.03765E5	2804.58346
0.64715	1.03660E5	2803.58346
0.64533	1.03555E5	2802.58346
0.64353	1.03451E5	2801.58346
0.64173	1.03346E5	2800.58346
0.63994	1.03242E5	2799.58346
0.63815	1.03139E5	2798.58346
0.63637	1.03035E5	2797.58346
0.63460	1.02932E5	2796.58346
0.63283	1.02829E5	2795.58346
0.63108	1.02726E5	2794.58346
0.62932	1.02624E5	2793.58346
0.62758	1.02522E5	2792.58346
0.62584	1.02420E5	2791.58346
0.62410	1.02318E5	2790.58346
0.62237	1.02217E5	2789.58346
0.62065	1.02115E5	2788.58346
0.61894	1.02014E5	2787.58346
0.61723	1.01914E5	2786.58346
0.61553	1.01813E5	2785.58346
0.61383	1.01713E5	2784.58346
0.61214	1.01613E5	2783.58346
0.61046	1.01513E5	2782.58346
0.60878	1.01414E5	2781.58346
0.60711	1.01315E5	2780.58346
0.60544	1.01216E5	2779.58346
0.60378	1.01117E5	2778.58346
0.60213	1.01018E5	2777.58346
0.60048	1.00920E5	2776.58346
0.59884	1.00822E5	2775.58346
0.59720	1.00724E5	2774.58346
0.59557	1.00627E5	2773.58346
0.59395	1.00529E5	2772.58346
0.59233	1.00432E5	2771.58346
0.59072	1.00335E5	2770.58346
0.58911	1.00239E5	2769.58346
0.58751	1.00142E5	2768.58346
0.58591	1.00046E5	2767.58346
0.58432	99950.15316	2766.58346
0.58274	99854.39993	2765.58346
0.58116	99758.86918	2764.58346
0.57958	99663.55983	2763.58346
0.57802	99568.47077	2762.58346
0.57645	99473.60091	2761.58346
0.57490	99378.94918	2760.58346
0.57335	99284.51450	2759.58346
0.57180	99190.29580	2758.58346
0.57026	99096.29203	2757.58346
0.56873	99002.50211	2756.58346
0.56720	98908.92502	2755.58346
0.56567	98815.55969	2754.58346
0.56415	98722.40511	2753.58346
0.56264	98629.46023	2752.58346
0.56113	98536.72403	2751.58346
0.55963	98444.19551	2750.58346
0.55813	98351.87363	2749.58346
0.55664	98259.75741	2748.58346
0.55515	98167.84584	2747.58346
0.55367	98076.13793	2746.58346
0.55219	97984.63268	2745.58346
0.55072	97893.32913	2744.58346
0.54925	97802.22628	2743.58346
0.54779	97711.32319	2742.58346
0.54633	97620.61887	2741.58346
0.54488	97530.11237	2740.58346
0.54343	97439.80275	2739.58346
0.54199	97349.68904	2738.58346
0.54055	97259.77032	2737.58346
0.53912	97170.04565	2736.58346
0.53769	97080.51409	2735.58346
0.53627	96991.17472	2734.58346
0.53485	96902.02663	2733.58346
0.53344	96813.06889	2732.58346
0.53203	96724.30061	2731.58346
0.53063	96635.72088	2730.58346
0.52923	96547.32880	2729.58346
0.52783	96459.12348	2728.58346
0.52645	96371.10403	2727.58346
0.52506	96283.26958	2726.58346
0.52368	96195.61924	2725.58346
0.52231	96108.15214	2724.58346
0.52094	96020.86743	2723.58346
0.51957	95933.76422	2722.58346
0.51821	95846.84168	2721.58346
0.51685	95760.09896	2720.58346
0.51550	95673.53519	2719.58346
0.51415	95587.14955	2718.58346
0.51281	95500.94119	2717.58346
0.51147	95414.90929	2716.58346
0.51013	95329.05302	2715.58346
0.50880	95243.37156	2714.58346
0.50748	95157.86409	2713.58346
0.50616	95072.52980	2712.58346
0.50484	94987.36788	2711.58346
0.50353	94902.37753	2710.58346
0.50222	94817.55795	2709.58346
0.50092	94732.90835	2708.58346
0.49962	94648.42794	2707.58346
0.49832	94564.11593	2706.58346
0.49703	94479.97155	2705.58346
0.49574	94395.99402	2704.58346
0.49446	94312.18256	2703.58346
0.49318	94228.53642	2702.58346
0.49191	94145.05483	2701.58346
0.49064	94061.73704	2700.58346
0.48937	93978.58228	2699.58346
0.48811	93895.58982	2698.58346
0.48685	93812.75890	2697.58346
0.48560	93730.08879	2696.58346
0.48435	93647.57875	2695.58346
0.48311	93565.22805	2694.58346
0.48186	93483.03596	2693.58346
0.48063	93401.00176	2692.58346
0.47939	93319.12473	2691.58346
0.47816	93237.40415	2690.58346
0.47694	93155.83931	2689.58346
0.47572	93074.42951	2688.58346
0.47450	92993.17403	2687.58346
0.47329	92912.07219	2686.58346
0.47208	92831.12329	2685.58346
0.47087	92750.32663	2684.58346
0.46967	92669.68153	2683.58346
0.46847	92589.18731	2682.58346
0.46728	92508.84328	2681.58346
0.46609	92428.64877	2680.58346
0.46490	92348.60310	2679.58346
0.46372	92268.70562	2678.58346
0.46254	92188.95565	2677.58346
0.46136	92109.35253	2676.58346
0.46019	92029.89561	2675.58346
0.45902	91950.58424	2674.58346
0.45786	91871.41775	2673.58346
0.45670	91792.39552	2672.58346
0.45554	91713.51689	2671.58346
0.45438	91634.78123	2670.58346
0.45323	91556.18790	2669.58346
0.45209	91477.73627	2668.58346
0.45095	91399.42571	2667.58346
0.44981	91321.25559	2666.58346
0.44867	91243.22531	2665.58346
0.44754	91165.33423	2664.58346
0.44641	91087.58174	2663.58346
0.44529	91009.96723	2662.58346
0.44416	90932.49010	2661.58346
0.44305	90855.14974	2660.58346
0.44193	90777.94555	2659.58346
0.44082	90700.87694	2658.58346
0.43971	90623.94330	2657.58346
0.43861	90547.14404	2656.58346
0.43751	90470.47859	2655.58346
0.43641	90393.94635	2654.58346
0.43532	90317.54674	2653.58346
0.43423	90241.27919	2652.58346
0.43314	90165.14313	2651.58346
0.43205	90089.13797	2650.58346
0.43097	90013.26315	2649.58346
0.42990	89937.51810	2648.58346
0.42882	89861.90227	2647.58346
0.42775	89786.41509	2646.58346
0.42668	89711.05601	2645.58346
0.42562	89635.82447	2644.58346
0.42456	89560.71992	2643.58346
0.42350	89485.74183	2642.58346
0.42245	89410.88963	2641.58346
0.42139	89336.16279	2640.58346
0.42035	89261.56078	2639.58346
0.41930	89187.08306	2638.58346
0.41826	89112.72909	2637.58346
0.41722	89038.49834	2636.58346
0.41618	88964.39029	2635.58346
0.41515	88890.40442	2634.58346
0.41412	88816.54020	2633.58346
0.41310	88742.79712	2632.58346
0.41207	88669.17465	2631.58346
0.41105	88595.67230	2630.58346
0.41004	88522.28954	2629.58346
0.40902	88449.02587	2628.58346
0.40801	88375.88078	2627.58346
0.40700	88302.85378	2626.58346
0.40600	88229.94437	2625.58346
0.40499	88157.15204	2624.58346
0.40400	88084.47631	2623.58346
0.40300	88011.91668	2622.58346
0.40201	87939.47267	2621.58346
0.40102	87867.14378	2620.58346
0.40003	87794.92955	2619.58346
0.39904	87722.82947	2618.58346
0.39806	87650.84309	2617.58346
0.39708	87578.96992	2616.58346
0.39611	87507.20949	2615.58346
0.39513	87435.56132	2614.58346
0.39416	87364.02496	2613.58346
0.39320	87292.59993	2612.58346
0.39223	87221.28578	2611.58346
0.39127	87150.08203	2610.58346
0.39031	87078.98824	2609.58346
0.38935	87008.00395	2608.58346
0.38840	86937.12870	2607.58346
0.38745	86866.36204	2606.58346
0.38650	86795.70353	2605.58346
0.38556	86725.15272	2604.58346
0.38461	86654.70916	2603.58346
0.38367	86584.37242	2602.58346
0.38274	86514.14205	2601.58346
0.38180	86444.01761	2600.58346
0.38087	86373.99868	2599.58346
0.37994	86304.08482	2598.58346
0.37902	86234.27560	2597.58346
0.37809	86164.57060	2596.58346
0.37717	86094.96938	2595.58346
0.37625	86025.47152	2594.58346
0.37534	85956.07661	2593.58346
0.37442	85886.78422	2592.58346
0.37351	85817.59394	2591.58346
0.37260	85748.50535	2590.58346
0.37170	85679.51804	2589.58346
0.37080	85610.63160	2588.58346
0.36990	85541.84562	2587.58346
0.36900	85473.15970	2586.58346
0.36810	85404.57343	2585.58346
0.36721	85336.08640	2584.58346
0.36632	85267.69823	2583.58346
0.36543	85199.40852	2582.58346
0.36455	85131.21685	2581.58346
0.36366	85063.12286	2580.58346
0.36278	84995.12613	2579.58346
0.36191	84927.22629	2578.58346
0.36103	84859.42294	2577.58346
0.36016	84791.71570	2576.58346
0.35929	84724.10419	2575.58346
0.35842	84656.58802	2574.58346
0.35755	84589.16681	2573.58346
0.35669	84521.84019	2572.58346
0.35583	84454.60779	2571.58346
0.35497	84387.46922	2570.58346
0.35411	84320.42411	2569.58346
0.35326	84253.47211	2568.58346
0.35241	84186.61283	2567.58346
0.35156	84119.84591	2566.58346
0.35071	84053.17098	2565.58346
0.34987	83986.58770	2564.58346
0.34902	83920.09568	2563.58346
0.34818	83853.69458	2562.58346
0.34735	83787.38404	2561.58346
0.34651	83721.16370	2560.58346
0.34568	83655.03321	2559.58346
0.34485	83588.99222	2558.58346
0.34402	83523.04038	2557.58346
0.34319	83457.17734	2556.58346
0.34237	83391.40275	2555.58346
0.34155	83325.71627	2554.58346
0.34073	83260.11755	2553.58346
0.33991	83194.60626	2552.58346
0.33909	83129.18206	2551.58346
0.33828	83063.84460	2550.58346
0.33747	82998.59356	2549.58346
0.33666	82933.42860	2548.58346
0.33585	82868.34938	2547.58346
0.33505	82803.35557	2546.58346
0.33425	82738.44686	2545.58346
0.33345	82673.62289	2544.58346
0.33265	82608.88337	2543.58346
0.33185	82544.22794	2542.58346
0.33106	82479.65631	2541.58346
0.33027	82415.16813	2540.58346
0.32948	82350.76310	2539.58346
0.32869	82286.44090	2538.58346
0.32791	82222.20121	2537.58346
0.32712	82158.04371	2536.58346
0.32634	82093.96809	2535.58346
0.32556	82029.97405	2534.58346
0.32478	81966.06126	2533.58346
0.32401	81902.22943	2532.58346
0.32324	81838.47824	2531.58346
0.32246	81774.80739	2530.58346
0.32169	81711.21657	2529.58346
0.32093	81647.70549	2528.58346
0.32016	81584.27384	2527.58346
0.31940	81520.92132	2526.58346
0.31864	81457.64763	2525.58346
0.31788	81394.45249	2524.58346
0.31712	81331.33558	2523.58346
0.31637	81268.29663	2522.58346
0.31561	81205.33533	2521.58346
0.31486	81142.45139	2520.58346
0.31411	81079.64454	2519.58346
0.31336	81016.91447	2518.58346
0.31262	80954.26090	2517.58346
0.31187	80891.68355	2516.58346
0.31113	80829.18213	2515.58346
0.31039	80766.75636	2514.58346
0.30965	80704.40597	2513.58346
0.30892	80642.13066	2512.58346
0.30818	80579.93016	2511.58346
0.30745	80517.80420	2510.58346
0.30672	80455.75250	2509.58346
0.30599	80393.77478	2508.58346
0.30526	80331.87078	2507.58346
0.30454	80270.04021	2506.58346
0.30381	80208.28282	2505.58346
0.30309	80146.59832	2504.58346
0.30237	80084.98646	2503.58346
0.30165	80023.44697	2502.58346
0.30094	79961.97958	2501.58346
0.30022	79900.58403	2500.58346
0.29951	79839.26005	2499.58346
0.29880	79778.00739	2498.58346
0.29809	79716.82578	2497.58346
0.29738	79655.71497	2496.58346
0.29668	79594.67470	2495.58346
0.29597	79533.70470	2494.58346
0.29527	79472.80474	2493.58346
0.29457	79411.97455	2492.58346
0.29387	79351.21387	2491.58346
0.29318	79290.52247	2490.58346
0.29248	79229.90009	2489.58346
0.29179	79169.34647	2488.58346
0.29109	79108.86138	2487.58346
0.29040	79048.44456	2486.58346
0.28972	78988.09577	2485.58346
0.28903	78927.81476	2484.58346
0.28834	78867.60130	2483.58346
0.28766	78807.45514	2482.58346
0.28698	78747.37604	2481.58346
0.28630	78687.36375	2480.58346
0.28562	78627.41805	2479.58346
0.28494	78567.53869	2478.58346
0.28427	78507.72543	2477.58346
0.28359	78447.97805	2476.58346
0.28292	78388.29630	2475.58346
0.28225	78328.67996	2474.58346
0.28158	78269.12879	2473.58346
0.28091	78209.64256	2472.58346
0.28025	78150.22104	2471.58346
0.27958	78090.86401	2470.58346
0.27892	78031.57123	2469.58346
0.27826	77972.34247	2468.58346
0.27760	77913.17752	2467.58346
0.27694	77854.07615	2466.58346
0.27628	77795.03814	2465.58346
0.27563	77736.06325	2464.58346
0.27498	77677.15128	2463.58346
0.27432	77618.30200	2462.58346
0.27367	77559.51519	2461.58346
0.27302	77500.79063	2460.58346
0.27238	77442.12811	2459.58346
0.27173	77383.52740	2458.58346
0.27109	77324.98830	2457.58346
0.27044	77266.51059	2456.58346
0.26980	77208.09406	2455.58346
0.26916	77149.73849	2454.58346
0.26852	77091.44367	2453.58346
0.26789	77033.20940	2452.58346
0.26725	76975.03545	2451.58346
0.26662	76916.92163	2450.58346
0.26598	76858.86773	2449.58346
0.26535	76800.87354	2448.58346
0.26472	76742.93885	2447.58346
0.26410	76685.06346	2446.58346
0.26347	76627.24717	2445.58346
0.26284	76569.48977	2444.58346
0.26222	76511.79106	2443.58346
0.26160	76454.15084	2442.58346
0.26097	76396.56891	2441.58346
0.26035	76339.04506	2440.58346
0.25974	76281.57912	2439.58346
0.25912	76224.17086	2438.58346
0.25850	76166.82011	2437.58346
0.25789	76109.52665	2436.58346
0.25728	76052.29030	2435.58346
0.25666	75995.11087	2434.58346
0.25605	75937.98816	2433.58346
0.25544	75880.92197	2432.58346
0.25484	75823.91213	2431.58346
0.25423	75766.95842	2430.58346
0.25362	75710.06068	2429.58346
0.25302	75653.21870	2428.58346
0.25242	75596.43230	2427.58346
0.25182	75539.70130	2426.58346
0.25122	75483.02550	2425.58346
0.25062	75426.40472	2424.58346
0.25002	75369.83878	2423.58346
0.24943	75313.32749	2422.58346
0.24883	75256.87067	2421.58346
0.24824	75200.46814	2420.58346
0.24765	75144.11971	2419.58346
0.24705	75087.82521	2418.58346
0.24646	75031.58445	2417.58346
0.24588	74975.39725	2416.58346
0.24529	74919.26345	2415.58346
0.24470	74863.18285	2414.58346
0.24412	74807.15529	2413.58346
0.24354	74751.18058	2412.58346
0.24295	74695.25856	2411.58346
0.24237	74639.38904	2410.58346
0.24179	74583.57186	2409.58346
0.24121	74527.80684	2408.58346
0.24064	74472.09380	2407.58346
0.24006	74416.43258	2406.58346
0.23949	74360.82301	2405.58346
0.23891	74305.26491	2404.58346
0.23834	74249.75812	2403.58346
0.23777	74194.30246	2402.58346
0.23720	74138.89778	2401.58346
0.23663	74083.54390	2400.58346
0.23606	74028.24065	2399.58346
0.23549	73972.98787	2398.58346
0.23493	73917.78540	2397.58346
0.23436	73862.63307	2396.58346
0.23380	73807.53072	2395.58346
0.23324	73752.47817	2394.58346
0.23268	73697.47528	2393.58346
0.23212	73642.52188	2392.58346
0.23156	73587.61781	2391.58346
0.23100	73532.76290	2390.58346
0.23044	73477.95701	2389.58346
0.22989	73423.19996	2388.58346
0.22933	73368.49160	2387.58346
0.22878	73313.83178	2386.58346
0.22823	73259.22033	2385.58346
0.22768	73204.65710	2384.58346
0.22713	73150.14193	2383.58346
0.22658	73095.67467	2382.58346
0.22603	73041.25516	2381.58346
0.22548	72986.88326	2380.58346
0.22494	72932.55879	2379.58346
0.22439	72878.28163	2378.58346
0.22385	72824.05160	2377.58346
0.22331	72769.86856	2376.58346
0.22277	72715.73236	2375.58346
0.22223	72661.64285	2374.58346
0.22169	72607.59988	2373.58346
0.22115	72553.60329	2372.58346
0.22061	72499.65295	2371.58346
0.22007	72445.74869	2370.58346
0.21954	72391.89038	2369.58346
0.21900	72338.07787	2368.58346
0.21847	72284.31102	2367.58346
0.21794	72230.58966	2366.58346
0.21741	72176.91367	2365.58346
0.21688	72123.28289	2364.58346
0.21635	72069.69719	2363.58346
0.21582	72016.15641	2362.58346
0.21529	71962.66042	2361.58346
0.21476	71909.20907	2360.58346
0.21424	71855.80222	2359.58346
0.21371	71802.43973	2358.58346
0.21319	71749.12145	2357.58346
0.21267	71695.84726	2356.58346
0.21215	71642.61700	2355.58346
0.21162	71589.43054	2354.58346
0.21111	71536.28774	2353.58346
0.21059	71483.18846	2352.58346
0.21007	71430.13256	2351.58346
0.20955	71377.11991	2350.58346
0.20903	71324.15037	2349.58346
0.20852	71271.22380	2348.58346
0.20800	71218.34007	2347.58346
0.20749	71165.49904	2346.58346
0.20698	71112.70057	2345.58346
0.20647	71059.94454	2344.58346
0.20596	71007.23080	2343.58346
0.20545	70954.55922	2342.58346
0.20494	70901.92968	2341.58346
0.20443	70849.34203	2340.58346
0.20392	70796.79615	2339.58346
0.20341	70744.29190	2338.58346
0.20291	70691.82916	2337.58346
0.20240	70639.40778	2336.58346
0.20190	70587.02765	2335.58346
0.20140	70534.68862	2334.58346
0.20089	70482.39058	2333.58346
0.20039	70430.13339	2332.58346
0.19989	70377.91692	2331.58346
0.19939	70325.74104	2330.58346
0.19889	70273.60563	2329.58346
0.19840	70221.51056	2328.58346
0.19790	70169.45570	2327.58346
0.19740	70117.44092	2326.58346
0.19691	70065.46610	2325.58346
0.19641	70013.53112	2324.58346
0.19592	69961.63583	2323.58346
0.19542	69909.78013	2322.58346
0.19493	69857.96388	2321.58346
0.19444	69806.18697	2320.58346
0.19395	69754.44926	2319.58346
0.19346	69702.75063	2318.58346
0.19297	69651.09096	2317.58346
0.19248	69599.47012	2316.58346
0.19199	69547.88799	2315.58346
0.19150	69496.34446	2314.58346
0.19102	69444.83939	2313.58346
0.19053	69393.37267	2312.58346
0.19005	69341.94417	2311.58346
0.18956	69290.55377	2310.58346
0.18908	69239.20135	2309.58346
0.18860	69187.88680	2308.58346
0.18811	69136.60998	2307.58346
0.18763	69085.37078	2306.58346
0.18715	69034.16908	2305.58346
0.18667	68983.00476	2304.58346
0.18619	68931.87770	2303.58346
0.18571	68880.78778	2302.58346
0.18524	68829.73488	2301.58346
0.18476	68778.71889	2300.58346
0.18428	68727.73968	2299.58346
0.18381	68676.79714	2298.58346
0.18333	68625.89115	2297.58346
0.18285	68575.02159	2296.58346
0.18238	68524.18835	2295.58346
0.18191	68473.39130	2294.58346
