Mole fraction of liquid	Heat per mole [J]	Temperature [K]
1.00000	1.26729E5	3025.61832
0.99998	1.26724E5	3025.52269
0.99635	1.26540E5	3024.52269
0.99274	1.26358E5	3023.52269
0.98914	1.26176E5	3022.52269
0.98557	1.25996E5	3021.52269
0.98201	1.25815E5	3020.52269
0.97847	1.25636E5	3019.52269
0.97495	1.25457E5	3018.52269
0.97145	1.25280E5	3017.52269
0.96796	1.25103E5	3016.52269
0.96449	1.24926E5	3015.52269
0.96104	1.24750E5	3014.52269
0.95760	1.24576E5	3013.52269
0.95419	1.24401E5	3012.52269
0.95079	1.24228E5	3011.52269
0.94740	1.24055E5	3010.52269
0.94403	1.23883E5	3009.52269
0.94068	1.23712E5	3008.52269
0.93735	1.23541E5	3007.52269
0.93403	1.23371E5	3006.52269
0.93073	1.23202E5	3005.52269
0.92745	1.23033E5	3004.52269
0.92418	1.22865E5	3003.52269
0.92092	1.22698E5	3002.52269
0.91769	1.22531E5	3001.52269
0.91447	1.22366E5	3000.52269
0.91126	1.22200E5	2999.52269
0.90807	1.22036E5	2998.52269
0.90490	1.21872E5	2997.52269
0.90174	1.21709E5	2996.52269
0.89859	1.21546E5	2995.52269
0.89546	1.21384E5	2994.52269
0.89235	1.21223E5	2993.52269
0.88925	1.21062E5	2992.52269
0.88617	1.20902E5	2991.52269
0.88310	1.20742E5	2990.52269
0.88004	1.20583E5	2989.52269
0.87700	1.20425E5	2988.52269
0.87398	1.20267E5	2987.52269
0.87097	1.20110E5	2986.52269
0.86797	1.19954E5	2985.52269
0.86499	1.19798E5	2984.52269
0.86202	1.19643E5	2983.52269
0.85907	1.19488E5	2982.52269
0.85613	1.19334E5	2981.52269
0.85320	1.19181E5	2980.52269
0.85029	1.19028E5	2979.52269
0.84739	1.18876E5	2978.52269
0.84451	1.18724E5	2977.52269
0.84164	1.18573E5	2976.52269
0.83878	1.18422E5	2975.52269
0.83594	1.18272E5	2974.52269
0.83310	1.18123E5	2973.52269
0.83029	1.17974E5	2972.52269
0.82748	1.17825E5	2971.52269
0.82469	1.17677E5	2970.52269
0.82191	1.17530E5	2969.52269
0.81915	1.17383E5	2968.52269
0.81639	1.17237E5	2967.52269
0.81365	1.17091E5	2966.52269
0.81093	1.16946E5	2965.52269
0.80821	1.16802E5	2964.52269
0.80551	1.16658E5	2963.52269
0.80282	1.16514E5	2962.52269
0.80014	1.16371E5	2961.52269
0.79748	1.16228E5	2960.52269
0.79483	1.16086E5	2959.52269
0.79219	1.15945E5	2958.52269
0.78956	1.15804E5	2957.52269
0.78694	1.15663E5	2956.52269
0.78434	1.15523E5	2955.52269
0.78174	1.15384E5	2954.52269
0.77916	1.15245E5	2953.52269
0.77659	1.15106E5	2952.52269
0.77404	1.14968E5	2951.52269
0.77149	1.14830E5	2950.52269
0.76896	1.14693E5	2949.52269
0.76643	1.14557E5	2948.52269
0.76392	1.14421E5	2947.52269
0.76142	1.14285E5	2946.52269
0.75893	1.14150E5	2945.52269
0.75645	1.14015E5	2944.52269
0.75399	1.13881E5	2943.52269
0.75153	1.13747E5	2942.52269
0.74909	1.13613E5	2941.52269
0.74665	1.13481E5	2940.52269
0.74423	1.13348E5	2939.52269
0.74182	1.13216E5	2938.52269
0.73942	1.13084E5	2937.52269
0.73702	1.12953E5	2936.52269
0.73464	1.12823E5	2935.52269
0.73227	1.12692E5	2934.52269
0.72992	1.12563E5	2933.52269
0.72757	1.12433E5	2932.52269
0.72523	1.12304E5	2931.52269
0.72290	1.12176E5	2930.52269
0.72058	1.12048E5	2929.52269
0.71827	1.11920E5	2928.52269
0.71598	1.11793E5	2927.52269
0.71369	1.11666E5	2926.52269
0.71141	1.11539E5	2925.52269
0.70914	1.11413E5	2924.52269
0.70689	1.11288E5	2923.52269
0.70464	1.11162E5	2922.52269
0.70240	1.11038E5	2921.52269
0.70017	1.10913E5	2920.52269
0.69795	1.10789E5	2919.52269
0.69574	1.10666E5	2918.52269
0.69354	1.10542E5	2917.52269
0.69135	1.10419E5	2916.52269
0.68917	1.10297E5	2915.52269
0.68700	1.10175E5	2914.52269
0.68484	1.10053E5	2913.52269
0.68269	1.09932E5	2912.52269
0.68054	1.09811E5	2911.52269
0.67841	1.09691E5	2910.52269
0.67628	1.09570E5	2909.52269
0.67417	1.09451E5	2908.52269
0.67206	1.09331E5	2907.52269
0.66996	1.09212E5	2906.52269
0.66787	1.09094E5	2905.52269
0.66579	1.08975E5	2904.52269
0.66372	1.08857E5	2903.52269
0.66166	1.08740E5	2902.52269
0.65960	1.08623E5	2901.52269
0.65756	1.08506E5	2900.52269
0.65552	1.08389E5	2899.52269
0.65349	1.08273E5	2898.52269
0.65147	1.08157E5	2897.52269
0.64946	1.08042E5	2896.52269
0.64746	1.07927E5	2895.52269
0.64547	1.07812E5	2894.52269
0.64348	1.07698E5	2893.52269
0.64150	1.07583E5	2892.52269
0.63953	1.07470E5	2891.52269
0.63757	1.07356E5	2890.52269
0.63562	1.07243E5	2889.52269
0.63367	1.07131E5	2888.52269
0.63174	1.07018E5	2887.52269
0.62981	1.06906E5	2886.52269
0.62789	1.06794E5	2885.52269
0.62597	1.06683E5	2884.52269
0.62407	1.06572E5	2883.52269
0.62217	1.06461E5	2882.52269
0.62028	1.06351E5	2881.52269
0.61840	1.06240E5	2880.52269
0.61653	1.06131E5	2879.52269
0.61466	1.06021E5	2878.52269
0.61280	1.05912E5	2877.52269
0.61095	1.05803E5	2876.52269
0.60911	1.05695E5	2875.52269
0.60727	1.05586E5	2874.52269
0.60544	1.05478E5	2873.52269
0.60362	1.05371E5	2872.52269
0.60181	1.05263E5	2871.52269
0.60000	1.05156E5	2870.52269
0.59820	1.05049E5	2869.52269
0.59641	1.04943E5	2868.52269
0.59463	1.04837E5	2867.52269
0.59285	1.04731E5	2866.52269
0.59108	1.04625E5	2865.52269
0.58931	1.04520E5	2864.52269
0.58756	1.04415E5	2863.52269
0.58581	1.04310E5	2862.52269
0.58407	1.04206E5	2861.52269
0.58233	1.04102E5	2860.52269
0.58060	1.03998E5	2859.52269
0.57888	1.03894E5	2858.52269
0.57717	1.03791E5	2857.52269
0.57546	1.03688E5	2856.52269
0.57376	1.03585E5	2855.52269
0.57207	1.03483E5	2854.52269
0.57038	1.03381E5	2853.52269
0.56870	1.03279E5	2852.52269
0.56703	1.03177E5	2851.52269
0.56536	1.03076E5	2850.52269
0.56370	1.02975E5	2849.52269
0.56204	1.02874E5	2848.52269
0.56040	1.02773E5	2847.52269
0.55875	1.02673E5	2846.52269
0.55712	1.02573E5	2845.52269
0.55549	1.02473E5	2844.52269
0.55387	1.02374E5	2843.52269
0.55225	1.02274E5	2842.52269
0.55064	1.02175E5	2841.52269
0.54904	1.02077E5	2840.52269
0.54744	1.01978E5	2839.52269
0.54585	1.01880E5	2838.52269
0.54427	1.01782E5	2837.52269
0.54269	1.01684E5	2836.52269
0.54112	1.01587E5	2835.52269
0.53955	1.01489E5	2834.52269
0.53799	1.01392E5	2833.52269
0.53644	1.01296E5	2832.52269
0.53489	1.01199E5	2831.52269
0.53335	1.01103E5	2830.52269
0.53181	1.01007E5	2829.52269
0.53028	1.00911E5	2828.52269
0.52876	1.00815E5	2827.52269
0.52724	1.00720E5	2826.52269
0.52573	1.00625E5	2825.52269
0.52422	1.00530E5	2824.52269
0.52272	1.00435E5	2823.52269
0.52122	1.00341E5	2822.52269
0.51973	1.00247E5	2821.52269
0.51825	1.00153E5	2820.52269
0.51677	1.00059E5	2819.52269
0.51530	99965.78452	2818.52269
0.51383	99872.52949	2817.52269
0.51237	99779.49893	2816.52269
0.51091	99686.69167	2815.52269
0.50946	99594.10655	2814.52269
0.50801	99501.74240	2813.52269
0.50657	99409.59808	2812.52269
0.50514	99317.67245	2811.52269
0.50371	99225.96438	2810.52269
0.50229	99134.47273	2809.52269
0.50087	99043.19640	2808.52269
0.49945	98952.13425	2807.52269
0.49805	98861.28520	2806.52269
0.49664	98770.64813	2805.52269
0.49525	98680.22197	2804.52269
0.49385	98590.00563	2803.52269
0.49247	98499.99802	2802.52269
0.49108	98410.19808	2801.52269
0.48971	98320.60474	2800.52269
0.48834	98231.21695	2799.52269
0.48697	98142.03365	2798.52269
0.48561	98053.05381	2797.52269
0.48425	97964.27638	2796.52269
0.48290	97875.70034	2795.52269
0.48155	97787.32466	2794.52269
0.48021	97699.14832	2793.52269
0.47887	97611.17031	2792.52269
0.47754	97523.38963	2791.52269
0.47621	97435.80527	2790.52269
0.47489	97348.41626	2789.52269
0.47357	97261.22159	2788.52269
0.47226	97174.22029	2787.52269
0.47095	97087.41139	2786.52269
0.46965	97000.79392	2785.52269
0.46835	96914.36691	2784.52269
0.46706	96828.12942	2783.52269
0.46577	96742.08048	2782.52269
0.46448	96656.21916	2781.52269
0.46320	96570.54453	2780.52269
0.46193	96485.05564	2779.52269
0.46066	96399.75157	2778.52269
0.45939	96314.63140	2777.52269
0.45813	96229.69422	2776.52269
0.45687	96144.93912	2775.52269
0.45562	96060.36519	2774.52269
0.45437	95975.97153	2773.52269
0.45313	95891.75726	2772.52269
0.45189	95807.72148	2771.52269
0.45066	95723.86331	2770.52269
0.44943	95640.18189	2769.52269
0.44820	95556.67633	2768.52269
0.44698	95473.34577	2767.52269
0.44576	95390.18935	2766.52269
0.44455	95307.20623	2765.52269
0.44334	95224.39553	2764.52269
0.44214	95141.75644	2763.52269
0.44093	95059.28809	2762.52269
0.43974	94976.98967	2761.52269
0.43855	94894.86033	2760.52269
0.43736	94812.89927	2759.52269
0.43618	94731.10565	2758.52269
0.43500	94649.47866	2757.52269
0.43382	94568.01750	2756.52269
0.43265	94486.72136	2755.52269
0.43148	94405.58944	2754.52269
0.43032	94324.62095	2753.52269
0.42916	94243.81509	2752.52269
0.42801	94163.17108	2751.52269
0.42686	94082.68815	2750.52269
0.42571	94002.36552	2749.52269
0.42457	93922.20241	2748.52269
0.42343	93842.19806	2747.52269
0.42229	93762.35170	2746.52269
0.42116	93682.66259	2745.52269
0.42004	93603.12997	2744.52269
0.41891	93523.75308	2743.52269
0.41779	93444.53120	2742.52269
0.41668	93365.46357	2741.52269
0.41557	93286.54947	2740.52269
0.41446	93207.78815	2739.52269
0.41335	93129.17891	2738.52269
0.41225	93050.72101	2737.52269
0.41116	92972.41374	2736.52269
0.41006	92894.25639	2735.52269
0.40898	92816.24824	2734.52269
0.40789	92738.38859	2733.52269
0.40681	92660.67675	2732.52269
0.40573	92583.11201	2731.52269
0.40466	92505.69369	2730.52269
0.40359	92428.42109	2729.52269
0.40252	92351.29353	2728.52269
0.40146	92274.31033	2727.52269
0.40040	92197.47082	2726.52269
0.39934	92120.77432	2725.52269
0.39829	92044.22017	2724.52269
0.39724	91967.80769	2723.52269
0.39619	91891.53624	2722.52269
0.39515	91815.40516	2721.52269
0.39411	91739.41378	2720.52269
0.39307	91663.56147	2719.52269
0.39204	91587.84758	2718.52269
0.39101	91512.27146	2717.52269
0.38999	91436.83249	2716.52269
0.38897	91361.53002	2715.52269
0.38795	91286.36343	2714.52269
0.38694	91211.33209	2713.52269
0.38592	91136.43537	2712.52269
0.38492	91061.67267	2711.52269
0.38391	90987.04336	2710.52269
0.38291	90912.54683	2709.52269
0.38191	90838.18247	2708.52269
0.38092	90763.94968	2707.52269
0.37992	90689.84785	2706.52269
0.37894	90615.87640	2705.52269
0.37795	90542.03472	2704.52269
0.37697	90468.32222	2703.52269
0.37599	90394.73832	2702.52269
0.37502	90321.28242	2701.52269
0.37404	90247.95396	2700.52269
0.37307	90174.75236	2699.52269
0.37211	90101.67703	2698.52269
0.37115	90028.72741	2697.52269
0.37019	89955.90293	2696.52269
0.36923	89883.20302	2695.52269
0.36828	89810.62713	2694.52269
0.36733	89738.17470	2693.52269
0.36638	89665.84517	2692.52269
0.36543	89593.63799	2691.52269
0.36449	89521.55261	2690.52269
0.36355	89449.58849	2689.52269
0.36262	89377.74508	2688.52269
0.36169	89306.02184	2687.52269
0.36076	89234.41825	2686.52269
0.35983	89162.93376	2685.52269
0.35891	89091.56785	2684.52269
0.35799	89020.31998	2683.52269
0.35707	88949.18964	2682.52269
0.35616	88878.17630	2681.52269
0.35524	88807.27945	2680.52269
0.35434	88736.49856	2679.52269
0.35343	88665.83314	2678.52269
0.35253	88595.28266	2677.52269
0.35163	88524.84662	2676.52269
0.35073	88454.52452	2675.52269
0.34984	88384.31586	2674.52269
0.34894	88314.22014	2673.52269
0.34806	88244.23685	2672.52269
0.34717	88174.36552	2671.52269
0.34629	88104.60565	2670.52269
0.34541	88034.95675	2669.52269
0.34453	87965.41834	2668.52269
0.34365	87895.98994	2667.52269
0.34278	87826.67106	2666.52269
0.34191	87757.46124	2665.52269
0.34104	87688.36000	2664.52269
0.34018	87619.36686	2663.52269
0.33932	87550.48136	2662.52269
0.33846	87481.70304	2661.52269
0.33760	87413.03142	2660.52269
0.33675	87344.46605	2659.52269
0.33590	87276.00647	2658.52269
0.33505	87207.65223	2657.52269
0.33421	87139.40287	2656.52269
0.33336	87071.25794	2655.52269
0.33252	87003.21700	2654.52269
0.33169	86935.27959	2653.52269
0.33085	86867.44527	2652.52269
0.33002	86799.71361	2651.52269
0.32919	86732.08417	2650.52269
0.32836	86664.55650	2649.52269
0.32754	86597.13018	2648.52269
0.32671	86529.80477	2647.52269
0.32589	86462.57985	2646.52269
0.32508	86395.45499	2645.52269
0.32426	86328.42976	2644.52269
0.32345	86261.50374	2643.52269
0.32264	86194.67652	2642.52269
0.32183	86127.94768	2641.52269
0.32103	86061.31680	2640.52269
0.32022	85994.78346	2639.52269
0.31942	85928.34726	2638.52269
0.31863	85862.00780	2637.52269
0.31783	85795.76465	2636.52269
0.31704	85729.61743	2635.52269
0.31625	85663.56573	2634.52269
0.31546	85597.60914	2633.52269
0.31467	85531.74727	2632.52269
0.31389	85465.97974	2631.52269
0.31311	85400.30613	2630.52269
0.31233	85334.72607	2629.52269
0.31155	85269.23916	2628.52269
0.31078	85203.84502	2627.52269
0.31001	85138.54326	2626.52269
0.30924	85073.33350	2625.52269
0.30847	85008.21535	2624.52269
0.30770	84943.18845	2623.52269
0.30694	84878.25242	2622.52269
0.30618	84813.40687	2621.52269
0.30542	84748.65144	2620.52269
0.30467	84683.98576	2619.52269
0.30391	84619.40945	2618.52269
0.30316	84554.92216	2617.52269
0.30241	84490.52351	2616.52269
0.30166	84426.21315	2615.52269
0.30092	84361.99072	2614.52269
0.30018	84297.85585	2613.52269
0.29943	84233.80818	2612.52269
0.29870	84169.84738	2611.52269
0.29796	84105.97307	2610.52269
0.29723	84042.18491	2609.52269
0.29649	83978.48255	2608.52269
0.29576	83914.86564	2607.52269
0.29504	83851.33384	2606.52269
0.29431	83787.88681	2605.52269
0.29359	83724.52419	2604.52269
0.29286	83661.24566	2603.52269
0.29214	83598.05087	2602.52269
0.29143	83534.93948	2601.52269
0.29071	83471.91117	2600.52269
0.29000	83408.96559	2599.52269
0.28929	83346.10242	2598.52269
0.28858	83283.32133	2597.52269
0.28787	83220.62198	2596.52269
0.28716	83158.00406	2595.52269
0.28646	83095.46724	2594.52269
0.28576	83033.01119	2593.52269
0.28506	82970.63560	2592.52269
0.28436	82908.34014	2591.52269
0.28367	82846.12450	2590.52269
0.28297	82783.98837	2589.52269
0.28228	82721.93142	2588.52269
0.28159	82659.95334	2587.52269
0.28091	82598.05383	2586.52269
0.28022	82536.23257	2585.52269
0.27954	82474.48926	2584.52269
0.27885	82412.82358	2583.52269
0.27817	82351.23525	2582.52269
0.27750	82289.72394	2581.52269
0.27682	82228.28936	2580.52269
0.27615	82166.93122	2579.52269
0.27547	82105.64920	2578.52269
0.27480	82044.44302	2577.52269
0.27413	81983.31238	2576.52269
0.27347	81922.25698	2575.52269
0.27280	81861.27654	2574.52269
0.27214	81800.37076	2573.52269
0.27148	81739.53935	2572.52269
0.27082	81678.78203	2571.52269
0.27016	81618.09850	2570.52269
0.26951	81557.48849	2569.52269
0.26885	81496.95171	2568.52269
0.26820	81436.48788	2567.52269
0.26755	81376.09671	2566.52269
0.26690	81315.77793	2565.52269
0.26625	81255.53127	2564.52269
0.26561	81195.35643	2563.52269
0.26497	81135.25316	2562.52269
0.26432	81075.22117	2561.52269
0.26368	81015.26020	2560.52269
0.26305	80955.36997	2559.52269
0.26241	80895.55021	2558.52269
0.26177	80835.80066	2557.52269
0.26114	80776.12105	2556.52269
0.26051	80716.51112	2555.52269
0.25988	80656.97059	2554.52269
0.25925	80597.49921	2553.52269
0.25863	80538.09672	2552.52269
0.25800	80478.76285	2551.52269
0.25738	80419.49735	2550.52269
0.25676	80360.29997	2549.52269
0.25614	80301.17043	2548.52269
0.25552	80242.10850	2547.52269
0.25491	80183.11391	2546.52269
0.25429	80124.18642	2545.52269
0.25368	80065.32577	2544.52269
0.25307	80006.53172	2543.52269
0.25246	79947.80401	2542.52269
0.25185	79889.14239	2541.52269
0.25124	79830.54664	2540.52269
0.25064	79772.01648	2539.52269
0.25003	79713.55170	2538.52269
0.24943	79655.15203	2537.52269
0.24883	79596.81725	2536.52269
0.24823	79538.54710	2535.52269
0.24764	79480.34136	2534.52269
0.24704	79422.19979	2533.52269
0.24645	79364.12214	2532.52269
0.24586	79306.10819	2531.52269
0.24526	79248.15770	2530.52269
0.24468	79190.27044	2529.52269
0.24409	79132.44617	2528.52269
0.24350	79074.68467	2527.52269
0.24292	79016.98570	2526.52269
0.24233	78959.34904	2525.52269
0.24175	78901.77446	2524.52269
0.24117	78844.26174	2523.52269
0.24059	78786.81065	2522.52269
0.24002	78729.42096	2521.52269
0.23944	78672.09246	2520.52269
0.23887	78614.82492	2519.52269
0.23829	78557.61813	2518.52269
0.23772	78500.47185	2517.52269
0.23715	78443.38589	2516.52269
0.23658	78386.36000	2515.52269
0.23602	78329.39400	2514.52269
0.23545	78272.48764	2513.52269
0.23489	78215.64073	2512.52269
0.23432	78158.85305	2511.52269
0.23376	78102.12439	2510.52269
0.23320	78045.45453	2509.52269
0.23265	77988.84327	2508.52269
0.23209	77932.29040	2507.52269
0.23153	77875.79571	2506.52269
0.23098	77819.35900	2505.52269
0.23043	77762.98005	2504.52269
0.22987	77706.65866	2503.52269
0.22932	77650.39464	2502.52269
0.22877	77594.18777	2501.52269
0.22823	77538.03785	2500.52269
0.22768	77481.94469	2499.52269
0.22714	77425.90809	2498.52269
0.22659	77369.92784	2497.52269
0.22605	77314.00375	2496.52269
0.22551	77258.13561	2495.52269
0.22497	77202.32325	2494.52269
0.22443	77146.56645	2493.52269
0.22390	77090.86503	2492.52269
0.22336	77035.21879	2491.52269
0.22283	76979.62754	2490.52269
0.22229	76924.09109	2489.52269
0.22176	76868.60924	2488.52269
0.22123	76813.18182	2487.52269
0.22070	76757.80862	2486.52269
0.22018	76702.48947	2485.52269
0.21965	76647.22418	2484.52269
0.21912	76592.01255	2483.52269
0.21860	76536.85441	2482.52269
0.21808	76481.74957	2481.52269
0.21756	76426.69784	2480.52269
0.21704	76371.69905	2479.52269
0.21652	76316.75302	2478.52269
0.21600	76261.85956	2477.52269
0.21548	76207.01849	2476.52269
0.21497	76152.22963	2475.52269
0.21446	76097.49281	2474.52269
0.21394	76042.80785	2473.52269
0.21343	75988.17457	2472.52269
0.21292	75933.59280	2471.52269
0.21241	75879.06236	2470.52269
0.21190	75824.58308	2469.52269
0.21140	75770.15478	2468.52269
0.21089	75715.77730	2467.52269
0.21039	75661.45045	2466.52269
0.20988	75607.17408	2465.52269
0.20938	75552.94801	2464.52269
0.20888	75498.77207	2463.52269
0.20838	75444.64609	2462.52269
0.20788	75390.56991	2461.52269
0.20739	75336.54335	2460.52269
0.20689	75282.56626	2459.52269
0.20639	75228.63847	2458.52269
0.20590	75174.75981	2457.52269
0.20541	75120.93012	2456.52269
0.20492	75067.14924	2455.52269
0.20443	75013.41701	2454.52269
0.20394	74959.73325	2453.52269
0.20345	74906.09782	2452.52269
0.20296	74852.51055	2451.52269
0.20248	74798.97129	2450.52269
0.20199	74745.47987	2449.52269
0.20151	74692.03614	2448.52269
0.20102	74638.63994	2447.52269
0.20054	74585.29111	2446.52269
0.20006	74531.98950	2445.52269
0.19958	74478.73496	2444.52269
0.19910	74425.52733	2443.52269
0.19863	74372.36645	2442.52269
0.19815	74319.25218	2441.52269
0.19767	74266.18436	2440.52269
0.19720	74213.16284	2439.52269
0.19673	74160.18747	2438.52269
0.19626	74107.25810	2437.52269
0.19578	74054.37459	2436.52269
0.19531	74001.53677	2435.52269
0.19485	73948.74451	2434.52269
0.19438	73895.99766	2433.52269
0.19391	73843.29607	2432.52269
0.19344	73790.63959	2431.52269
0.19298	73738.02808	2430.52269
0.19252	73685.46140	2429.52269
0.19205	73632.93940	2428.52269
0.19159	73580.46193	2427.52269
0.19113	73528.02886	2426.52269
0.19067	73475.64005	2425.52269
0.19021	73423.29535	2424.52269
0.18975	73370.99461	2423.52269
0.18930	73318.73771	2422.52269
0.18884	73266.52450	2421.52269
0.18839	73214.35485	2420.52269
0.18793	73162.22861	2419.52269
0.18748	73110.14564	2418.52269
0.18703	73058.10581	2417.52269
0.18657	73006.10899	2416.52269
0.18612	72954.15504	2415.52269
0.18568	72902.24381	2414.52269
0.18523	72850.37519	2413.52269
0.18478	72798.54903	2412.52269
0.18433	72746.76520	2411.52269
0.18389	72695.02356	2410.52269
0.18344	72643.32400	2409.52269
0.18300	72591.66636	2408.52269
0.18256	72540.05053	2407.52269
0.18212	72488.47637	2406.52269
0.18167	72436.94375	2405.52269
0.18123	72385.45254	2404.52269
0.18080	72334.00262	2403.52269
0.18036	72282.59385	2402.52269
0.17992	72231.22610	2401.52269
0.17948	72179.89926	2400.52269
0.17905	72128.61319	2399.52269
0.17861	72077.36777	2398.52269
0.17818	72026.16287	2397.52269
0.17775	71974.99837	2396.52269
0.17731	71923.87413	2395.52269
0.17688	71872.79005	2394.52269
0.17645	71821.74599	2393.52269
0.17602	71770.74183	2392.52269
0.17559	71719.77745	2391.52269
0.17517	71668.85273	2390.52269
0.17474	71617.96754	2389.52269
0.17431	71567.12177	2388.52269
0.17389	71516.31529	2387.52269
0.17346	71465.54798	2386.52269
0.17304	71414.81973	2385.52269
0.17262	71364.13042	2384.52269
0.17220	71313.47992	2383.52269
0.17177	71262.86813	2382.52269
0.17135	71212.29491	2381.52269
0.17093	71161.76016	2380.52269
0.17052	71111.26376	2379.52269
0.17010	71060.80559	2378.52269
0.16968	71010.38554	2377.52269
0.16926	70960.00349	2376.52269
0.16885	70909.65933	2375.52269
0.16843	70859.35294	2374.52269
0.16802	70809.08421	2373.52269
0.16761	70758.85302	2372.52269
0.16720	70708.65927	2371.52269
