Mole fraction of liquid	Heat per mole [J]	Temperature [K]
1.00000	1.26950E5	3027.44401
0.99998	1.26945E5	3027.34839
0.99638	1.26765E5	3026.34839
0.99280	1.26585E5	3025.34839
0.98923	1.26406E5	3024.34839
0.98569	1.26227E5	3023.34839
0.98216	1.26050E5	3022.34839
0.97865	1.25873E5	3021.34839
0.97516	1.25697E5	3020.34839
0.97168	1.25521E5	3019.34839
0.96822	1.25347E5	3018.34839
0.96478	1.25173E5	3017.34839
0.96136	1.24999E5	3016.34839
0.95796	1.24827E5	3015.34839
0.95457	1.24655E5	3014.34839
0.95119	1.24484E5	3013.34839
0.94784	1.24314E5	3012.34839
0.94450	1.24144E5	3011.34839
0.94118	1.23975E5	3010.34839
0.93787	1.23807E5	3009.34839
0.93458	1.23639E5	3008.34839
0.93131	1.23472E5	3007.34839
0.92806	1.23306E5	3006.34839
0.92481	1.23140E5	3005.34839
0.92159	1.22975E5	3004.34839
0.91838	1.22811E5	3003.34839
0.91519	1.22648E5	3002.34839
0.91201	1.22485E5	3001.34839
0.90885	1.22322E5	3000.34839
0.90570	1.22161E5	2999.34839
0.90257	1.22000E5	2998.34839
0.89945	1.21839E5	2997.34839
0.89635	1.21679E5	2996.34839
0.89327	1.21520E5	2995.34839
0.89020	1.21362E5	2994.34839
0.88714	1.21204E5	2993.34839
0.88410	1.21046E5	2992.34839
0.88107	1.20890E5	2991.34839
0.87806	1.20734E5	2990.34839
0.87506	1.20578E5	2989.34839
0.87208	1.20423E5	2988.34839
0.86911	1.20269E5	2987.34839
0.86616	1.20115E5	2986.34839
0.86322	1.19962E5	2985.34839
0.86029	1.19810E5	2984.34839
0.85738	1.19658E5	2983.34839
0.85448	1.19506E5	2982.34839
0.85159	1.19355E5	2981.34839
0.84872	1.19205E5	2980.34839
0.84586	1.19055E5	2979.34839
0.84302	1.18906E5	2978.34839
0.84019	1.18758E5	2977.34839
0.83737	1.18610E5	2976.34839
0.83457	1.18462E5	2975.34839
0.83177	1.18315E5	2974.34839
0.82900	1.18169E5	2973.34839
0.82623	1.18023E5	2972.34839
0.82348	1.17878E5	2971.34839
0.82074	1.17733E5	2970.34839
0.81801	1.17589E5	2969.34839
0.81530	1.17445E5	2968.34839
0.81260	1.17302E5	2967.34839
0.80991	1.17159E5	2966.34839
0.80723	1.17017E5	2965.34839
0.80457	1.16875E5	2964.34839
0.80192	1.16734E5	2963.34839
0.79928	1.16593E5	2962.34839
0.79665	1.16453E5	2961.34839
0.79404	1.16313E5	2960.34839
0.79143	1.16174E5	2959.34839
0.78884	1.16035E5	2958.34839
0.78626	1.15897E5	2957.34839
0.78370	1.15760E5	2956.34839
0.78114	1.15622E5	2955.34839
0.77860	1.15486E5	2954.34839
0.77607	1.15349E5	2953.34839
0.77354	1.15214E5	2952.34839
0.77103	1.15078E5	2951.34839
0.76854	1.14943E5	2950.34839
0.76605	1.14809E5	2949.34839
0.76357	1.14675E5	2948.34839
0.76111	1.14542E5	2947.34839
0.75866	1.14408E5	2946.34839
0.75622	1.14276E5	2945.34839
0.75378	1.14144E5	2944.34839
0.75136	1.14012E5	2943.34839
0.74895	1.13881E5	2942.34839
0.74656	1.13750E5	2941.34839
0.74417	1.13620E5	2940.34839
0.74179	1.13490E5	2939.34839
0.73942	1.13360E5	2938.34839
0.73707	1.13231E5	2937.34839
0.73472	1.13103E5	2936.34839
0.73239	1.12975E5	2935.34839
0.73006	1.12847E5	2934.34839
0.72775	1.12719E5	2933.34839
0.72544	1.12592E5	2932.34839
0.72315	1.12466E5	2931.34839
0.72087	1.12340E5	2930.34839
0.71859	1.12214E5	2929.34839
0.71633	1.12089E5	2928.34839
0.71407	1.11964E5	2927.34839
0.71183	1.11840E5	2926.34839
0.70960	1.11715E5	2925.34839
0.70737	1.11592E5	2924.34839
0.70516	1.11469E5	2923.34839
0.70295	1.11346E5	2922.34839
0.70076	1.11223E5	2921.34839
0.69857	1.11101E5	2920.34839
0.69639	1.10979E5	2919.34839
0.69423	1.10858E5	2918.34839
0.69207	1.10737E5	2917.34839
0.68992	1.10617E5	2916.34839
0.68778	1.10496E5	2915.34839
0.68565	1.10377E5	2914.34839
0.68353	1.10257E5	2913.34839
0.68142	1.10138E5	2912.34839
0.67931	1.10019E5	2911.34839
0.67722	1.09901E5	2910.34839
0.67514	1.09783E5	2909.34839
0.67306	1.09665E5	2908.34839
0.67099	1.09548E5	2907.34839
0.66894	1.09431E5	2906.34839
0.66689	1.09315E5	2905.34839
0.66485	1.09198E5	2904.34839
0.66281	1.09083E5	2903.34839
0.66079	1.08967E5	2902.34839
0.65878	1.08852E5	2901.34839
0.65677	1.08737E5	2900.34839
0.65477	1.08623E5	2899.34839
0.65278	1.08509E5	2898.34839
0.65080	1.08395E5	2897.34839
0.64883	1.08281E5	2896.34839
0.64686	1.08168E5	2895.34839
0.64491	1.08056E5	2894.34839
0.64296	1.07943E5	2893.34839
0.64102	1.07831E5	2892.34839
0.63909	1.07719E5	2891.34839
0.63717	1.07608E5	2890.34839
0.63525	1.07497E5	2889.34839
0.63334	1.07386E5	2888.34839
0.63144	1.07276E5	2887.34839
0.62955	1.07165E5	2886.34839
0.62767	1.07056E5	2885.34839
0.62579	1.06946E5	2884.34839
0.62392	1.06837E5	2883.34839
0.62206	1.06728E5	2882.34839
0.62021	1.06619E5	2881.34839
0.61836	1.06511E5	2880.34839
0.61652	1.06403E5	2879.34839
0.61469	1.06295E5	2878.34839
0.61287	1.06188E5	2877.34839
0.61106	1.06081E5	2876.34839
0.60925	1.05974E5	2875.34839
0.60745	1.05868E5	2874.34839
0.60565	1.05761E5	2873.34839
0.60387	1.05656E5	2872.34839
0.60209	1.05550E5	2871.34839
0.60032	1.05445E5	2870.34839
0.59855	1.05340E5	2869.34839
0.59680	1.05235E5	2868.34839
0.59505	1.05131E5	2867.34839
0.59330	1.05026E5	2866.34839
0.59157	1.04922E5	2865.34839
0.58984	1.04819E5	2864.34839
0.58812	1.04716E5	2863.34839
0.58640	1.04613E5	2862.34839
0.58469	1.04510E5	2861.34839
0.58299	1.04407E5	2860.34839
0.58130	1.04305E5	2859.34839
0.57961	1.04203E5	2858.34839
0.57793	1.04102E5	2857.34839
0.57625	1.04000E5	2856.34839
0.57458	1.03899E5	2855.34839
0.57292	1.03798E5	2854.34839
0.57127	1.03698E5	2853.34839
0.56962	1.03597E5	2852.34839
0.56798	1.03497E5	2851.34839
0.56634	1.03397E5	2850.34839
0.56472	1.03298E5	2849.34839
0.56309	1.03199E5	2848.34839
0.56148	1.03099E5	2847.34839
0.55987	1.03001E5	2846.34839
0.55827	1.02902E5	2845.34839
0.55667	1.02804E5	2844.34839
0.55508	1.02706E5	2843.34839
0.55349	1.02608E5	2842.34839
0.55192	1.02511E5	2841.34839
0.55034	1.02413E5	2840.34839
0.54878	1.02316E5	2839.34839
0.54722	1.02219E5	2838.34839
0.54567	1.02123E5	2837.34839
0.54412	1.02027E5	2836.34839
0.54258	1.01931E5	2835.34839
0.54104	1.01835E5	2834.34839
0.53951	1.01739E5	2833.34839
0.53799	1.01644E5	2832.34839
0.53647	1.01549E5	2831.34839
0.53496	1.01454E5	2830.34839
0.53345	1.01359E5	2829.34839
0.53195	1.01265E5	2828.34839
0.53046	1.01170E5	2827.34839
0.52897	1.01076E5	2826.34839
0.52748	1.00983E5	2825.34839
0.52601	1.00889E5	2824.34839
0.52453	1.00796E5	2823.34839
0.52307	1.00703E5	2822.34839
0.52161	1.00610E5	2821.34839
0.52015	1.00517E5	2820.34839
0.51870	1.00425E5	2819.34839
0.51726	1.00333E5	2818.34839
0.51582	1.00241E5	2817.34839
0.51438	1.00149E5	2816.34839
0.51296	1.00058E5	2815.34839
0.51153	99966.30058	2814.34839
0.51012	99875.20220	2813.34839
0.50870	99784.31637	2812.34839
0.50730	99693.64200	2811.34839
0.50590	99603.17799	2810.34839
0.50450	99512.92325	2809.34839
0.50311	99422.87670	2808.34839
0.50172	99333.03725	2807.34839
0.50034	99243.40385	2806.34839
0.49897	99153.97542	2805.34839
0.49760	99064.75092	2804.34839
0.49623	98975.72929	2803.34839
0.49487	98886.90950	2802.34839
0.49352	98798.29050	2801.34839
0.49217	98709.87127	2800.34839
0.49082	98621.65079	2799.34839
0.48948	98533.62804	2798.34839
0.48815	98445.80202	2797.34839
0.48682	98358.17171	2796.34839
0.48549	98270.73613	2795.34839
0.48417	98183.49428	2794.34839
0.48286	98096.44518	2793.34839
0.48155	98009.58785	2792.34839
0.48024	97922.92133	2791.34839
0.47894	97836.44464	2790.34839
0.47764	97750.15683	2789.34839
0.47635	97664.05695	2788.34839
0.47507	97578.14404	2787.34839
0.47378	97492.41717	2786.34839
0.47251	97406.87540	2785.34839
0.47123	97321.51780	2784.34839
0.46996	97236.34346	2783.34839
0.46870	97151.35144	2782.34839
0.46744	97066.54085	2781.34839
0.46619	96981.91077	2780.34839
0.46494	96897.46030	2779.34839
0.46369	96813.18855	2778.34839
0.46245	96729.09463	2777.34839
0.46121	96645.17766	2776.34839
0.45998	96561.43676	2775.34839
0.45875	96477.87105	2774.34839
0.45753	96394.47967	2773.34839
0.45631	96311.26175	2772.34839
0.45510	96228.21645	2771.34839
0.45389	96145.34290	2770.34839
0.45268	96062.64027	2769.34839
0.45148	95980.10771	2768.34839
0.45028	95897.74438	2767.34839
0.44909	95815.54946	2766.34839
0.44790	95733.52212	2765.34839
0.44672	95651.66154	2764.34839
0.44553	95569.96691	2763.34839
0.44436	95488.43741	2762.34839
0.44319	95407.07224	2761.34839
0.44202	95325.87060	2760.34839
0.44085	95244.83170	2759.34839
0.43969	95163.95474	2758.34839
0.43854	95083.23894	2757.34839
0.43739	95002.68352	2756.34839
0.43624	94922.28769	2755.34839
0.43510	94842.05070	2754.34839
0.43396	94761.97178	2753.34839
0.43282	94682.05015	2752.34839
0.43169	94602.28507	2751.34839
0.43056	94522.67578	2750.34839
0.42944	94443.22153	2749.34839
0.42832	94363.92159	2748.34839
0.42720	94284.77520	2747.34839
0.42609	94205.78165	2746.34839
0.42498	94126.94018	2745.34839
0.42387	94048.25009	2744.34839
0.42277	93969.71065	2743.34839
0.42168	93891.32114	2742.34839
0.42058	93813.08085	2741.34839
0.41949	93734.98906	2740.34839
0.41841	93657.04509	2739.34839
0.41733	93579.24822	2738.34839
0.41625	93501.59776	2737.34839
0.41517	93424.09302	2736.34839
0.41410	93346.73332	2735.34839
0.41304	93269.51796	2734.34839
0.41197	93192.44626	2733.34839
0.41091	93115.51757	2732.34839
0.40986	93038.73119	2731.34839
0.40880	92962.08647	2730.34839
0.40775	92885.58274	2729.34839
0.40671	92809.21935	2728.34839
0.40567	92732.99563	2727.34839
0.40463	92656.91094	2726.34839
0.40359	92580.96462	2725.34839
0.40256	92505.15604	2724.34839
0.40153	92429.48455	2723.34839
0.40051	92353.94952	2722.34839
0.39949	92278.55032	2721.34839
0.39847	92203.28631	2720.34839
0.39745	92128.15688	2719.34839
0.39644	92053.16139	2718.34839
0.39543	91978.29924	2717.34839
0.39443	91903.56980	2716.34839
0.39343	91828.97248	2715.34839
0.39243	91754.50665	2714.34839
0.39144	91680.17172	2713.34839
0.39045	91605.96709	2712.34839
0.38946	91531.89217	2711.34839
0.38847	91457.94635	2710.34839
0.38749	91384.12905	2709.34839
0.38652	91310.43968	2708.34839
0.38554	91236.87767	2707.34839
0.38457	91163.44242	2706.34839
0.38360	91090.13338	2705.34839
0.38264	91016.94995	2704.34839
0.38167	90943.89159	2703.34839
0.38071	90870.95771	2702.34839
0.37976	90798.14775	2701.34839
0.37881	90725.46117	2700.34839
0.37786	90652.89739	2699.34839
0.37691	90580.45588	2698.34839
0.37597	90508.13607	2697.34839
0.37503	90435.93742	2696.34839
0.37409	90363.85940	2695.34839
0.37316	90291.90145	2694.34839
0.37222	90220.06304	2693.34839
0.37130	90148.34364	2692.34839
0.37037	90076.74272	2691.34839
0.36945	90005.25975	2690.34839
0.36853	89933.89420	2689.34839
0.36761	89862.64556	2688.34839
0.36670	89791.51329	2687.34839
0.36579	89720.49690	2686.34839
0.36488	89649.59586	2685.34839
0.36398	89578.80966	2684.34839
0.36308	89508.13780	2683.34839
0.36218	89437.57978	2682.34839
0.36128	89367.13509	2681.34839
0.36039	89296.80323	2680.34839
0.35950	89226.58370	2679.34839
0.35861	89156.47603	2678.34839
0.35773	89086.47970	2677.34839
0.35685	89016.59425	2676.34839
0.35597	88946.81918	2675.34839
0.35509	88877.15400	2674.34839
0.35422	88807.59826	2673.34839
0.35335	88738.15145	2672.34839
0.35248	88668.81312	2671.34839
0.35162	88599.58279	2670.34839
0.35075	88530.45999	2669.34839
0.34990	88461.44426	2668.34839
0.34904	88392.53513	2667.34839
0.34818	88323.73214	2666.34839
0.34733	88255.03484	2665.34839
0.34648	88186.44277	2664.34839
0.34564	88117.95548	2663.34839
0.34479	88049.57251	2662.34839
0.34395	87981.29342	2661.34839
0.34312	87913.11777	2660.34839
0.34228	87845.04511	2659.34839
0.34145	87777.07499	2658.34839
0.34062	87709.20699	2657.34839
0.33979	87641.44067	2656.34839
0.33896	87573.77559	2655.34839
0.33814	87506.21132	2654.34839
0.33732	87438.74744	2653.34839
0.33650	87371.38351	2652.34839
0.33569	87304.11913	2651.34839
0.33487	87236.95385	2650.34839
0.33406	87169.88728	2649.34839
0.33326	87102.91898	2648.34839
0.33245	87036.04855	2647.34839
0.33165	86969.27557	2646.34839
0.33085	86902.59963	2645.34839
0.33005	86836.02033	2644.34839
0.32926	86769.53726	2643.34839
0.32846	86703.15002	2642.34839
0.32767	86636.85820	2641.34839
0.32688	86570.66142	2640.34839
0.32610	86504.55926	2639.34839
0.32531	86438.55135	2638.34839
0.32453	86372.63728	2637.34839
0.32375	86306.81666	2636.34839
0.32298	86241.08911	2635.34839
0.32220	86175.45425	2634.34839
0.32143	86109.91169	2633.34839
0.32066	86044.46104	2632.34839
0.31990	85979.10193	2631.34839
0.31913	85913.83398	2630.34839
0.31837	85848.65682	2629.34839
0.31761	85783.57007	2628.34839
0.31685	85718.57337	2627.34839
0.31610	85653.66633	2626.34839
0.31534	85588.84860	2625.34839
0.31459	85524.11981	2624.34839
0.31384	85459.47959	2623.34839
0.31310	85394.92759	2622.34839
0.31235	85330.46345	2621.34839
0.31161	85266.08681	2620.34839
0.31087	85201.79731	2619.34839
0.31013	85137.59459	2618.34839
0.30940	85073.47832	2617.34839
0.30866	85009.44813	2616.34839
0.30793	84945.50369	2615.34839
0.30720	84881.64464	2614.34839
0.30648	84817.87064	2613.34839
0.30575	84754.18134	2612.34839
0.30503	84690.57642	2611.34839
0.30431	84627.05552	2610.34839
0.30359	84563.61831	2609.34839
0.30287	84500.26447	2608.34839
0.30216	84436.99364	2607.34839
0.30145	84373.80551	2606.34839
0.30074	84310.69974	2605.34839
0.30003	84247.67600	2604.34839
0.29932	84184.73398	2603.34839
0.29862	84121.87333	2602.34839
0.29792	84059.09375	2601.34839
0.29722	83996.39491	2600.34839
0.29652	83933.77649	2599.34839
0.29582	83871.23817	2598.34839
0.29513	83808.77964	2597.34839
0.29444	83746.40058	2596.34839
0.29375	83684.10068	2595.34839
0.29306	83621.87963	2594.34839
0.29237	83559.73712	2593.34839
0.29169	83497.67284	2592.34839
0.29101	83435.68649	2591.34839
0.29033	83373.77776	2590.34839
0.28965	83311.94635	2589.34839
0.28897	83250.19195	2588.34839
0.28830	83188.51428	2587.34839
0.28762	83126.91302	2586.34839
0.28695	83065.38788	2585.34839
0.28629	83003.93858	2584.34839
0.28562	82942.56480	2583.34839
0.28495	82881.26627	2582.34839
0.28429	82820.04270	2581.34839
0.28363	82758.89378	2580.34839
0.28297	82697.81924	2579.34839
0.28231	82636.81879	2578.34839
0.28166	82575.89214	2577.34839
0.28100	82515.03902	2576.34839
0.28035	82454.25914	2575.34839
0.27970	82393.55222	2574.34839
0.27905	82332.91798	2573.34839
0.27841	82272.35614	2572.34839
0.27776	82211.86644	2571.34839
0.27712	82151.44859	2570.34839
0.27648	82091.10232	2569.34839
0.27584	82030.82736	2568.34839
0.27520	81970.62345	2567.34839
0.27457	81910.49031	2566.34839
0.27393	81850.42767	2565.34839
0.27330	81790.43527	2564.34839
0.27267	81730.51284	2563.34839
0.27204	81670.66013	2562.34839
0.27142	81610.87687	2561.34839
0.27079	81551.16279	2560.34839
0.27017	81491.51765	2559.34839
0.26954	81431.94118	2558.34839
0.26892	81372.43312	2557.34839
0.26831	81312.99323	2556.34839
0.26769	81253.62124	2555.34839
0.26707	81194.31691	2554.34839
0.26646	81135.07998	2553.34839
0.26585	81075.91020	2552.34839
0.26524	81016.80733	2551.34839
0.26463	80957.77111	2550.34839
0.26402	80898.80131	2549.34839
0.26342	80839.89767	2548.34839
0.26281	80781.05995	2547.34839
0.26221	80722.28792	2546.34839
0.26161	80663.58132	2545.34839
0.26101	80604.93992	2544.34839
0.26042	80546.36348	2543.34839
0.25982	80487.85176	2542.34839
0.25923	80429.40453	2541.34839
0.25864	80371.02155	2540.34839
0.25804	80312.70259	2539.34839
0.25746	80254.44741	2538.34839
0.25687	80196.25578	2537.34839
0.25628	80138.12748	2536.34839
0.25570	80080.06226	2535.34839
0.25512	80022.05992	2534.34839
0.25453	79964.12021	2533.34839
0.25395	79906.24291	2532.34839
0.25338	79848.42780	2531.34839
0.25280	79790.67465	2530.34839
0.25222	79732.98324	2529.34839
0.25165	79675.35335	2528.34839
0.25108	79617.78476	2527.34839
0.25051	79560.27725	2526.34839
0.24994	79502.83061	2525.34839
0.24937	79445.44461	2524.34839
0.24880	79388.11903	2523.34839
0.24824	79330.85367	2522.34839
0.24768	79273.64832	2521.34839
0.24711	79216.50275	2520.34839
0.24655	79159.41675	2519.34839
0.24600	79102.39013	2518.34839
0.24544	79045.42266	2517.34839
0.24488	78988.51413	2516.34839
0.24433	78931.66435	2515.34839
0.24377	78874.87310	2514.34839
0.24322	78818.14018	2513.34839
0.24267	78761.46538	2512.34839
0.24212	78704.84851	2511.34839
0.24158	78648.28935	2510.34839
0.24103	78591.78771	2509.34839
0.24048	78535.34338	2508.34839
0.23994	78478.95617	2507.34839
0.23940	78422.62589	2506.34839
0.23886	78366.35232	2505.34839
0.23832	78310.13528	2504.34839
0.23778	78253.97456	2503.34839
0.23725	78197.86998	2502.34839
0.23671	78141.82134	2501.34839
0.23618	78085.82845	2500.34839
0.23564	78029.89112	2499.34839
0.23511	77974.00916	2498.34839
0.23458	77918.18236	2497.34839
0.23406	77862.41056	2496.34839
0.23353	77806.69356	2495.34839
0.23300	77751.03116	2494.34839
0.23248	77695.42320	2493.34839
0.23196	77639.86947	2492.34839
0.23143	77584.36980	2491.34839
0.23091	77528.92400	2490.34839
0.23039	77473.53190	2489.34839
0.22988	77418.19330	2488.34839
0.22936	77362.90803	2487.34839
0.22884	77307.67591	2486.34839
0.22833	77252.49675	2485.34839
0.22782	77197.37039	2484.34839
0.22731	77142.29664	2483.34839
0.22680	77087.27532	2482.34839
0.22629	77032.30627	2481.34839
0.22578	76977.38931	2480.34839
0.22527	76922.52425	2479.34839
0.22477	76867.71094	2478.34839
0.22426	76812.94919	2477.34839
0.22376	76758.23883	2476.34839
0.22326	76703.57971	2475.34839
0.22276	76648.97163	2474.34839
0.22226	76594.41445	2473.34839
0.22176	76539.90798	2472.34839
0.22126	76485.45206	2471.34839
0.22077	76431.04652	2470.34839
0.22027	76376.69120	2469.34839
0.21978	76322.38594	2468.34839
0.21929	76268.13056	2467.34839
0.21880	76213.92491	2466.34839
0.21831	76159.76882	2465.34839
0.21782	76105.66213	2464.34839
0.21733	76051.60468	2463.34839
0.21685	75997.59632	2462.34839
0.21636	75943.63687	2461.34839
0.21588	75889.72618	2460.34839
0.21540	75835.86409	2459.34839
0.21491	75782.05045	2458.34839
0.21443	75728.28510	2457.34839
0.21396	75674.56788	2456.34839
0.21348	75620.89863	2455.34839
0.21300	75567.27721	2454.34839
0.21252	75513.70346	2453.34839
0.21205	75460.17723	2452.34839
0.21158	75406.69836	2451.34839
0.21110	75353.26670	2450.34839
0.21063	75299.88211	2449.34839
0.21016	75246.54443	2448.34839
0.20969	75193.25351	2447.34839
0.20922	75140.00920	2446.34839
0.20876	75086.81136	2445.34839
0.20829	75033.65984	2444.34839
0.20783	74980.55449	2443.34839
0.20736	74927.49516	2442.34839
0.20690	74874.48171	2441.34839
0.20644	74821.51401	2440.34839
0.20598	74768.59189	2439.34839
0.20552	74715.71522	2438.34839
0.20506	74662.88386	2437.34839
0.20460	74610.09766	2436.34839
0.20415	74557.35648	2435.34839
0.20369	74504.66019	2434.34839
0.20324	74452.00863	2433.34839
0.20278	74399.40168	2432.34839
0.20233	74346.83920	2431.34839
0.20188	74294.32104	2430.34839
0.20143	74241.84707	2429.34839
0.20098	74189.41715	2428.34839
0.20053	74137.03114	2427.34839
0.20008	74084.68892	2426.34839
0.19964	74032.39034	2425.34839
0.19919	73980.13527	2424.34839
0.19875	73927.92357	2423.34839
0.19831	73875.75513	2422.34839
0.19786	73823.62979	2421.34839
0.19742	73771.54743	2420.34839
0.19698	73719.50792	2419.34839
0.19654	73667.51113	2418.34839
0.19610	73615.55692	2417.34839
0.19567	73563.64517	2416.34839
0.19523	73511.77575	2415.34839
0.19479	73459.94853	2414.34839
0.19436	73408.16339	2413.34839
0.19393	73356.42019	2412.34839
0.19349	73304.71881	2411.34839
0.19306	73253.05912	2410.34839
0.19263	73201.44099	2409.34839
0.19220	73149.86431	2408.34839
0.19177	73098.32895	2407.34839
0.19135	73046.83478	2406.34839
0.19092	72995.38168	2405.34839
0.19049	72943.96953	2404.34839
0.19007	72892.59821	2403.34839
0.18964	72841.26759	2402.34839
0.18922	72789.97755	2401.34839
0.18880	72738.72798	2400.34839
0.18838	72687.51875	2399.34839
0.18795	72636.34974	2398.34839
0.18754	72585.22083	2397.34839
0.18712	72534.13191	2396.34839
0.18670	72483.08286	2395.34839
0.18628	72432.07356	2394.34839
0.18586	72381.10389	2393.34839
0.18545	72330.17374	2392.34839
0.18504	72279.28299	2391.34839
0.18462	72228.43153	2390.34839
0.18421	72177.61923	2389.34839
0.18380	72126.84600	2388.34839
0.18339	72076.11170	2387.34839
0.18298	72025.41624	2386.34839
0.18257	71974.75949	2385.34839
0.18216	71924.14134	2384.34839
0.18175	71873.56169	2383.34839
0.18134	71823.02042	2382.34839
0.18094	71772.51741	2381.34839
0.18053	71722.05257	2380.34839
0.18013	71671.62577	2379.34839
0.17972	71621.23692	2378.34839
0.17932	71570.88589	2377.34839
0.17892	71520.57259	2376.34839
0.17852	71470.29690	2375.34839
0.17812	71420.05872	2374.34839
0.17772	71369.85794	2373.34839
0.17732	71319.69444	2372.34839
