Mole fraction of liquid	Heat per mole [J]	Temperature [K]
1.00000	1.30239E5	3093.57312
0.99998	1.30234E5	3093.47750
0.99589	1.30024E5	3092.47750
0.99183	1.29816E5	3091.47750
0.98779	1.29608E5	3090.47750
0.98378	1.29401E5	3089.47750
0.97978	1.29196E5	3088.47750
0.97581	1.28991E5	3087.47750
0.97186	1.28787E5	3086.47750
0.96793	1.28584E5	3085.47750
0.96403	1.28383E5	3084.47750
0.96014	1.28182E5	3083.47750
0.95628	1.27982E5	3082.47750
0.95244	1.27783E5	3081.47750
0.94862	1.27585E5	3080.47750
0.94482	1.27388E5	3079.47750
0.94104	1.27192E5	3078.47750
0.93729	1.26996E5	3077.47750
0.93355	1.26802E5	3076.47750
0.92983	1.26609E5	3075.47750
0.92614	1.26416E5	3074.47750
0.92246	1.26224E5	3073.47750
0.91880	1.26034E5	3072.47750
0.91517	1.25844E5	3071.47750
0.91155	1.25655E5	3070.47750
0.90795	1.25467E5	3069.47750
0.90438	1.25279E5	3068.47750
0.90082	1.25093E5	3067.47750
0.89728	1.24907E5	3066.47750
0.89376	1.24723E5	3065.47750
0.89026	1.24539E5	3064.47750
0.88678	1.24356E5	3063.47750
0.88331	1.24173E5	3062.47750
0.87987	1.23992E5	3061.47750
0.87644	1.23811E5	3060.47750
0.87303	1.23631E5	3059.47750
0.86964	1.23452E5	3058.47750
0.86627	1.23274E5	3057.47750
0.86291	1.23097E5	3056.47750
0.85958	1.22920E5	3055.47750
0.85626	1.22744E5	3054.47750
0.85296	1.22569E5	3053.47750
0.84967	1.22394E5	3052.47750
0.84640	1.22221E5	3051.47750
0.84315	1.22048E5	3050.47750
0.83992	1.21876E5	3049.47750
0.83670	1.21704E5	3048.47750
0.83351	1.21534E5	3047.47750
0.83032	1.21364E5	3046.47750
0.82716	1.21195E5	3045.47750
0.82401	1.21026E5	3044.47750
0.82087	1.20859E5	3043.47750
0.81776	1.20691E5	3042.47750
0.81466	1.20525E5	3041.47750
0.81157	1.20360E5	3040.47750
0.80850	1.20195E5	3039.47750
0.80545	1.20030E5	3038.47750
0.80241	1.19867E5	3037.47750
0.79939	1.19704E5	3036.47750
0.79638	1.19542E5	3035.47750
0.79339	1.19380E5	3034.47750
0.79042	1.19219E5	3033.47750
0.78746	1.19059E5	3032.47750
0.78451	1.18900E5	3031.47750
0.78158	1.18741E5	3030.47750
0.77866	1.18583E5	3029.47750
0.77576	1.18425E5	3028.47750
0.77288	1.18268E5	3027.47750
0.77001	1.18112E5	3026.47750
0.76715	1.17956E5	3025.47750
0.76431	1.17801E5	3024.47750
0.76148	1.17647E5	3023.47750
0.75866	1.17493E5	3022.47750
0.75586	1.17340E5	3021.47750
0.75308	1.17187E5	3020.47750
0.75030	1.17035E5	3019.47750
0.74755	1.16884E5	3018.47750
0.74480	1.16733E5	3017.47750
0.74207	1.16583E5	3016.47750
0.73935	1.16433E5	3015.47750
0.73665	1.16284E5	3014.47750
0.73396	1.16136E5	3013.47750
0.73128	1.15988E5	3012.47750
0.72862	1.15841E5	3011.47750
0.72597	1.15694E5	3010.47750
0.72333	1.15548E5	3009.47750
0.72070	1.15403E5	3008.47750
0.71809	1.15258E5	3007.47750
0.71549	1.15113E5	3006.47750
0.71291	1.14969E5	3005.47750
0.71033	1.14826E5	3004.47750
0.70777	1.14683E5	3003.47750
0.70522	1.14541E5	3002.47750
0.70268	1.14399E5	3001.47750
0.70016	1.14258E5	3000.47750
0.69765	1.14118E5	2999.47750
0.69515	1.13978E5	2998.47750
0.69266	1.13838E5	2997.47750
0.69019	1.13699E5	2996.47750
0.68772	1.13560E5	2995.47750
0.68527	1.13422E5	2994.47750
0.68283	1.13285E5	2993.47750
0.68040	1.13148E5	2992.47750
0.67798	1.13011E5	2991.47750
0.67558	1.12875E5	2990.47750
0.67319	1.12740E5	2989.47750
0.67080	1.12605E5	2988.47750
0.66843	1.12470E5	2987.47750
0.66607	1.12336E5	2986.47750
0.66372	1.12203E5	2985.47750
0.66139	1.12070E5	2984.47750
0.65906	1.11937E5	2983.47750
0.65674	1.11805E5	2982.47750
0.65444	1.11674E5	2981.47750
0.65215	1.11542E5	2980.47750
0.64986	1.11412E5	2979.47750
0.64759	1.11282E5	2978.47750
0.64533	1.11152E5	2977.47750
0.64308	1.11022E5	2976.47750
0.64084	1.10894E5	2975.47750
0.63861	1.10765E5	2974.47750
0.63639	1.10637E5	2973.47750
0.63418	1.10510E5	2972.47750
0.63198	1.10383E5	2971.47750
0.62979	1.10256E5	2970.47750
0.62762	1.10130E5	2969.47750
0.62545	1.10004E5	2968.47750
0.62329	1.09879E5	2967.47750
0.62114	1.09754E5	2966.47750
0.61900	1.09630E5	2965.47750
0.61687	1.09505E5	2964.47750
0.61476	1.09382E5	2963.47750
0.61265	1.09259E5	2962.47750
0.61055	1.09136E5	2961.47750
0.60846	1.09014E5	2960.47750
0.60638	1.08892E5	2959.47750
0.60431	1.08770E5	2958.47750
0.60224	1.08649E5	2957.47750
0.60019	1.08528E5	2956.47750
0.59815	1.08408E5	2955.47750
0.59612	1.08288E5	2954.47750
0.59409	1.08168E5	2953.47750
0.59208	1.08049E5	2952.47750
0.59007	1.07931E5	2951.47750
0.58807	1.07812E5	2950.47750
0.58609	1.07694E5	2949.47750
0.58411	1.07577E5	2948.47750
0.58214	1.07459E5	2947.47750
0.58018	1.07343E5	2946.47750
0.57822	1.07226E5	2945.47750
0.57628	1.07110E5	2944.47750
0.57435	1.06994E5	2943.47750
0.57242	1.06879E5	2942.47750
0.57050	1.06764E5	2941.47750
0.56859	1.06650E5	2940.47750
0.56669	1.06535E5	2939.47750
0.56480	1.06421E5	2938.47750
0.56292	1.06308E5	2937.47750
0.56104	1.06195E5	2936.47750
0.55917	1.06082E5	2935.47750
0.55731	1.05970E5	2934.47750
0.55546	1.05857E5	2933.47750
0.55362	1.05746E5	2932.47750
0.55179	1.05634E5	2931.47750
0.54996	1.05523E5	2930.47750
0.54814	1.05413E5	2929.47750
0.54633	1.05302E5	2928.47750
0.54453	1.05192E5	2927.47750
0.54273	1.05082E5	2926.47750
0.54095	1.04973E5	2925.47750
0.53917	1.04864E5	2924.47750
0.53739	1.04755E5	2923.47750
0.53563	1.04647E5	2922.47750
0.53387	1.04539E5	2921.47750
0.53213	1.04431E5	2920.47750
0.53038	1.04324E5	2919.47750
0.52865	1.04217E5	2918.47750
0.52693	1.04110E5	2917.47750
0.52521	1.04004E5	2916.47750
0.52350	1.03898E5	2915.47750
0.52179	1.03792E5	2914.47750
0.52009	1.03686E5	2913.47750
0.51841	1.03581E5	2912.47750
0.51672	1.03476E5	2911.47750
0.51505	1.03372E5	2910.47750
0.51338	1.03267E5	2909.47750
0.51172	1.03163E5	2908.47750
0.51007	1.03060E5	2907.47750
0.50842	1.02956E5	2906.47750
0.50678	1.02853E5	2905.47750
0.50515	1.02751E5	2904.47750
0.50352	1.02648E5	2903.47750
0.50190	1.02546E5	2902.47750
0.50029	1.02444E5	2901.47750
0.49868	1.02342E5	2900.47750
0.49709	1.02241E5	2899.47750
0.49549	1.02140E5	2898.47750
0.49391	1.02039E5	2897.47750
0.49233	1.01939E5	2896.47750
0.49076	1.01839E5	2895.47750
0.48919	1.01739E5	2894.47750
0.48763	1.01639E5	2893.47750
0.48608	1.01540E5	2892.47750
0.48454	1.01441E5	2891.47750
0.48300	1.01342E5	2890.47750
0.48146	1.01244E5	2889.47750
0.47994	1.01145E5	2888.47750
0.47842	1.01047E5	2887.47750
0.47690	1.00950E5	2886.47750
0.47539	1.00852E5	2885.47750
0.47389	1.00755E5	2884.47750
0.47240	1.00658E5	2883.47750
0.47091	1.00561E5	2882.47750
0.46942	1.00465E5	2881.47750
0.46795	1.00369E5	2880.47750
0.46647	1.00273E5	2879.47750
0.46501	1.00177E5	2878.47750
0.46355	1.00082E5	2877.47750
0.46210	99986.74173	2876.47750
0.46065	99891.86386	2875.47750
0.45921	99797.23561	2874.47750
0.45777	99702.85560	2873.47750
0.45634	99608.72246	2872.47750
0.45492	99514.83481	2871.47750
0.45350	99421.19131	2870.47750
0.45209	99327.79061	2869.47750
0.45068	99234.63137	2868.47750
0.44928	99141.71226	2867.47750
0.44788	99049.03197	2866.47750
0.44649	98956.58918	2865.47750
0.44511	98864.38259	2864.47750
0.44373	98772.41091	2863.47750
0.44236	98680.67285	2862.47750
0.44099	98589.16714	2861.47750
0.43963	98497.89251	2860.47750
0.43827	98406.84771	2859.47750
0.43692	98316.03147	2858.47750
0.43557	98225.44257	2857.47750
0.43423	98135.07977	2856.47750
0.43289	98044.94184	2855.47750
0.43156	97955.02756	2854.47750
0.43024	97865.33573	2853.47750
0.42892	97775.86514	2852.47750
0.42761	97686.61461	2851.47750
0.42630	97597.58294	2850.47750
0.42499	97508.76897	2849.47750
0.42369	97420.17151	2848.47750
0.42240	97331.78941	2847.47750
0.42111	97243.62151	2846.47750
0.41983	97155.66667	2845.47750
0.41855	97067.92375	2844.47750
0.41727	96980.39162	2843.47750
0.41600	96893.06915	2842.47750
0.41474	96805.95522	2841.47750
0.41348	96719.04873	2840.47750
0.41223	96632.34858	2839.47750
0.41098	96545.85366	2838.47750
0.40973	96459.56290	2837.47750
0.40849	96373.47520	2836.47750
0.40726	96287.58950	2835.47750
0.40603	96201.90474	2834.47750
0.40480	96116.41984	2833.47750
0.40358	96031.13376	2832.47750
0.40236	95946.04545	2831.47750
0.40115	95861.15388	2830.47750
0.39995	95776.45800	2829.47750
0.39874	95691.95680	2828.47750
0.39755	95607.64925	2827.47750
0.39635	95523.53434	2826.47750
0.39516	95439.61107	2825.47750
0.39398	95355.87844	2824.47750
0.39280	95272.33544	2823.47750
0.39163	95188.98110	2822.47750
0.39046	95105.81444	2821.47750
0.38929	95022.83447	2820.47750
0.38813	94940.04024	2819.47750
0.38697	94857.43078	2818.47750
0.38582	94775.00513	2817.47750
0.38467	94692.76235	2816.47750
0.38353	94610.70149	2815.47750
0.38239	94528.82161	2814.47750
0.38125	94447.12178	2813.47750
0.38012	94365.60108	2812.47750
0.37899	94284.25858	2811.47750
0.37787	94203.09338	2810.47750
0.37675	94122.10456	2809.47750
0.37563	94041.29122	2808.47750
0.37452	93960.65246	2807.47750
0.37342	93880.18740	2806.47750
0.37231	93799.89514	2805.47750
0.37122	93719.77482	2804.47750
0.37012	93639.82554	2803.47750
0.36903	93560.04645	2802.47750
0.36795	93480.43667	2801.47750
0.36686	93400.99536	2800.47750
0.36579	93321.72166	2799.47750
0.36471	93242.61472	2798.47750
0.36364	93163.67370	2797.47750
0.36258	93084.89777	2796.47750
0.36151	93006.28608	2795.47750
0.36046	92927.83782	2794.47750
0.35940	92849.55216	2793.47750
0.35835	92771.42828	2792.47750
0.35730	92693.46538	2791.47750
0.35626	92615.66266	2790.47750
0.35522	92538.01930	2789.47750
0.35418	92460.53451	2788.47750
0.35315	92383.20750	2787.47750
0.35213	92306.03748	2786.47750
0.35110	92229.02368	2785.47750
0.35008	92152.16531	2784.47750
0.34906	92075.46161	2783.47750
0.34805	91998.91180	2782.47750
0.34704	91922.51513	2781.47750
0.34603	91846.27083	2780.47750
0.34503	91770.17816	2779.47750
0.34403	91694.23636	2778.47750
0.34304	91618.44468	2777.47750
0.34205	91542.80240	2776.47750
0.34106	91467.30878	2775.47750
0.34007	91391.96308	2774.47750
0.33909	91316.76458	2773.47750
0.33811	91241.71255	2772.47750
0.33714	91166.80628	2771.47750
0.33617	91092.04507	2770.47750
0.33520	91017.42819	2769.47750
0.33424	90942.95494	2768.47750
0.33328	90868.62463	2767.47750
0.33232	90794.43655	2766.47750
0.33137	90720.39002	2765.47750
0.33042	90646.48435	2764.47750
0.32947	90572.71886	2763.47750
0.32853	90499.09286	2762.47750
0.32759	90425.60569	2761.47750
0.32665	90352.25666	2760.47750
0.32572	90279.04512	2759.47750
0.32479	90205.97039	2758.47750
0.32386	90133.03183	2757.47750
0.32293	90060.22878	2756.47750
0.32201	89987.56058	2755.47750
0.32110	89915.02658	2754.47750
0.32018	89842.62615	2753.47750
0.31927	89770.35865	2752.47750
0.31836	89698.22343	2751.47750
0.31746	89626.21987	2750.47750
0.31656	89554.34733	2749.47750
0.31566	89482.60520	2748.47750
0.31476	89410.99286	2747.47750
0.31387	89339.50967	2746.47750
0.31298	89268.15504	2745.47750
0.31209	89196.92836	2744.47750
0.31121	89125.82900	2743.47750
0.31033	89054.85638	2742.47750
0.30945	88984.00990	2741.47750
0.30858	88913.28895	2740.47750
0.30771	88842.69295	2739.47750
0.30684	88772.22130	2738.47750
0.30597	88701.87343	2737.47750
0.30511	88631.64874	2736.47750
0.30425	88561.54667	2735.47750
0.30339	88491.56664	2734.47750
0.30254	88421.70807	2733.47750
0.30169	88351.97039	2732.47750
0.30084	88282.35305	2731.47750
0.29999	88212.85548	2730.47750
0.29915	88143.47712	2729.47750
0.29831	88074.21741	2728.47750
0.29748	88005.07581	2727.47750
0.29664	87936.05176	2726.47750
0.29581	87867.14473	2725.47750
0.29498	87798.35416	2724.47750
0.29416	87729.67952	2723.47750
0.29333	87661.12027	2722.47750
0.29251	87592.67588	2721.47750
0.29170	87524.34582	2720.47750
0.29088	87456.12957	2719.47750
0.29007	87388.02659	2718.47750
0.28926	87320.03636	2717.47750
0.28845	87252.15838	2716.47750
0.28765	87184.39212	2715.47750
0.28685	87116.73707	2714.47750
0.28605	87049.19273	2713.47750
0.28526	86981.75858	2712.47750
0.28446	86914.43413	2711.47750
0.28367	86847.21887	2710.47750
0.28288	86780.11230	2709.47750
0.28210	86713.11394	2708.47750
0.28131	86646.22329	2707.47750
0.28053	86579.43985	2706.47750
0.27976	86512.76316	2705.47750
0.27898	86446.19271	2704.47750
0.27821	86379.72803	2703.47750
0.27744	86313.36864	2702.47750
0.27667	86247.11407	2701.47750
0.27590	86180.96385	2700.47750
0.27514	86114.91749	2699.47750
0.27438	86048.97455	2698.47750
0.27362	85983.13454	2697.47750
0.27287	85917.39702	2696.47750
0.27211	85851.76151	2695.47750
0.27136	85786.22757	2694.47750
0.27062	85720.79474	2693.47750
0.26987	85655.46257	2692.47750
0.26913	85590.23060	2691.47750
0.26838	85525.09839	2690.47750
0.26765	85460.06551	2689.47750
0.26691	85395.13149	2688.47750
0.26618	85330.29592	2687.47750
0.26544	85265.55834	2686.47750
0.26471	85200.91833	2685.47750
0.26399	85136.37545	2684.47750
0.26326	85071.92927	2683.47750
0.26254	85007.57937	2682.47750
0.26182	84943.32533	2681.47750
0.26110	84879.16671	2680.47750
0.26039	84815.10310	2679.47750
0.25967	84751.13408	2678.47750
0.25896	84687.25924	2677.47750
0.25825	84623.47816	2676.47750
0.25755	84559.79044	2675.47750
0.25684	84496.19565	2674.47750
0.25614	84432.69341	2673.47750
0.25544	84369.28329	2672.47750
0.25474	84305.96491	2671.47750
0.25405	84242.73786	2670.47750
0.25335	84179.60174	2669.47750
0.25266	84116.55617	2668.47750
0.25197	84053.60073	2667.47750
0.25128	83990.73506	2666.47750
0.25060	83927.95875	2665.47750
0.24992	83865.27141	2664.47750
0.24923	83802.67268	2663.47750
0.24856	83740.16215	2662.47750
0.24788	83677.73946	2661.47750
0.24720	83615.40422	2660.47750
0.24653	83553.15605	2659.47750
0.24586	83490.99459	2658.47750
0.24519	83428.91947	2657.47750
0.24453	83366.93030	2656.47750
0.24386	83305.02672	2655.47750
0.24320	83243.20837	2654.47750
0.24254	83181.47489	2653.47750
0.24188	83119.82590	2652.47750
0.24123	83058.26105	2651.47750
0.24057	82996.77999	2650.47750
0.23992	82935.38235	2649.47750
0.23927	82874.06778	2648.47750
0.23862	82812.83593	2647.47750
0.23797	82751.68645	2646.47750
0.23733	82690.61898	2645.47750
0.23669	82629.63319	2644.47750
0.23605	82568.72872	2643.47750
0.23541	82507.90524	2642.47750
0.23477	82447.16241	2641.47750
0.23414	82386.49987	2640.47750
0.23350	82325.91730	2639.47750
0.23287	82265.41436	2638.47750
0.23224	82204.99072	2637.47750
0.23161	82144.64603	2636.47750
0.23099	82084.37999	2635.47750
0.23037	82024.19224	2634.47750
0.22974	81964.08247	2633.47750
0.22912	81904.05036	2632.47750
0.22851	81844.09557	2631.47750
0.22789	81784.21779	2630.47750
0.22727	81724.41669	2629.47750
0.22666	81664.69197	2628.47750
0.22605	81605.04329	2627.47750
0.22544	81545.47035	2626.47750
0.22483	81485.97283	2625.47750
0.22423	81426.55042	2624.47750
0.22363	81367.20282	2623.47750
0.22302	81307.92970	2622.47750
0.22242	81248.73077	2621.47750
0.22182	81189.60572	2620.47750
0.22123	81130.55425	2619.47750
0.22063	81071.57605	2618.47750
0.22004	81012.67083	2617.47750
0.21945	80953.83828	2616.47750
0.21886	80895.07811	2615.47750
0.21827	80836.39002	2614.47750
0.21768	80777.77372	2613.47750
0.21710	80719.22891	2612.47750
0.21651	80660.75531	2611.47750
0.21593	80602.35262	2610.47750
0.21535	80544.02056	2609.47750
0.21477	80485.75883	2608.47750
0.21420	80427.56717	2607.47750
0.21362	80369.44527	2606.47750
0.21305	80311.39286	2605.47750
0.21248	80253.40966	2604.47750
0.21191	80195.49539	2603.47750
0.21134	80137.64976	2602.47750
0.21077	80079.87252	2601.47750
0.21021	80022.16337	2600.47750
0.20964	79964.52205	2599.47750
0.20908	79906.94828	2598.47750
0.20852	79849.44179	2597.47750
0.20796	79792.00232	2596.47750
0.20740	79734.62960	2595.47750
0.20685	79677.32335	2594.47750
0.20629	79620.08332	2593.47750
0.20574	79562.90923	2592.47750
0.20519	79505.80084	2591.47750
0.20464	79448.75787	2590.47750
0.20409	79391.78007	2589.47750
0.20355	79334.86717	2588.47750
0.20300	79278.01893	2587.47750
0.20246	79221.23508	2586.47750
0.20191	79164.51537	2585.47750
0.20137	79107.85955	2584.47750
0.20084	79051.26736	2583.47750
0.20030	78994.73856	2582.47750
0.19976	78938.27290	2581.47750
0.19923	78881.87012	2580.47750
0.19869	78825.52998	2579.47750
0.19816	78769.25224	2578.47750
0.19763	78713.03664	2577.47750
0.19710	78656.88295	2576.47750
0.19657	78600.79093	2575.47750
0.19605	78544.76033	2574.47750
0.19552	78488.79092	2573.47750
0.19500	78432.88245	2572.47750
0.19448	78377.03470	2571.47750
0.19396	78321.24741	2570.47750
0.19344	78265.52037	2569.47750
0.19292	78209.85333	2568.47750
0.19241	78154.24606	2567.47750
0.19189	78098.69834	2566.47750
0.19138	78043.20992	2565.47750
0.19086	77987.78059	2564.47750
0.19035	77932.41011	2563.47750
0.18984	77877.09827	2562.47750
0.18934	77821.84482	2561.47750
0.18883	77766.64955	2560.47750
0.18832	77711.51224	2559.47750
0.18782	77656.43266	2558.47750
0.18732	77601.41060	2557.47750
0.18682	77546.44582	2556.47750
0.18632	77491.53812	2555.47750
0.18582	77436.68728	2554.47750
0.18532	77381.89307	2553.47750
0.18482	77327.15528	2552.47750
0.18433	77272.47371	2551.47750
0.18383	77217.84813	2550.47750
0.18334	77163.27833	2549.47750
0.18285	77108.76410	2548.47750
0.18236	77054.30524	2547.47750
0.18187	76999.90152	2546.47750
0.18139	76945.55275	2545.47750
0.18090	76891.25872	2544.47750
0.18041	76837.01921	2543.47750
0.17993	76782.83403	2542.47750
0.17945	76728.70297	2541.47750
0.17897	76674.62582	2540.47750
0.17849	76620.60239	2539.47750
0.17801	76566.63248	2538.47750
0.17753	76512.71587	2537.47750
0.17706	76458.85238	2536.47750
0.17658	76405.04181	2535.47750
0.17611	76351.28395	2534.47750
0.17563	76297.57862	2533.47750
0.17516	76243.92561	2532.47750
0.17469	76190.32473	2531.47750
0.17422	76136.77579	2530.47750
0.17376	76083.27860	2529.47750
0.17329	76029.83296	2528.47750
0.17282	75976.43868	2527.47750
0.17236	75923.09558	2526.47750
0.17190	75869.80346	2525.47750
0.17143	75816.56213	2524.47750
0.17097	75763.37141	2523.47750
0.17051	75710.23112	2522.47750
0.17005	75657.14106	2521.47750
0.16960	75604.10106	2520.47750
0.16914	75551.11092	2519.47750
0.16869	75498.17047	2518.47750
0.16823	75445.27952	2517.47750
0.16778	75392.43790	2516.47750
0.16733	75339.64542	2515.47750
0.16688	75286.90190	2514.47750
0.16643	75234.20717	2513.47750
0.16598	75181.56105	2512.47750
0.16553	75128.96335	2511.47750
0.16508	75076.41392	2510.47750
0.16464	75023.91256	2509.47750
0.16419	74971.45911	2508.47750
0.16375	74919.05338	2507.47750
0.16331	74866.69522	2506.47750
0.16287	74814.38445	2505.47750
0.16243	74762.12089	2504.47750
0.16199	74709.90438	2503.47750
0.16155	74657.73475	2502.47750
0.16111	74605.61182	2501.47750
0.16068	74553.53544	2500.47750
0.16024	74501.50543	2499.47750
0.15981	74449.52162	2498.47750
0.15937	74397.58386	2497.47750
0.15894	74345.69197	2496.47750
0.15851	74293.84580	2495.47750
0.15808	74242.04517	2494.47750
0.15765	74190.28993	2493.47750
0.15722	74138.57992	2492.47750
0.15680	74086.91497	2491.47750
0.15637	74035.29493	2490.47750
0.15595	73983.71963	2489.47750
0.15552	73932.18892	2488.47750
0.15510	73880.70263	2487.47750
0.15468	73829.26061	2486.47750
0.15426	73777.86271	2485.47750
0.15384	73726.50876	2484.47750
0.15342	73675.19862	2483.47750
0.15300	73623.93213	2482.47750
0.15258	73572.70912	2481.47750
0.15217	73521.52946	2480.47750
0.15175	73470.39299	2479.47750
0.15134	73419.29956	2478.47750
0.15092	73368.24901	2477.47750
0.15051	73317.24119	2476.47750
0.15010	73266.27596	2475.47750
0.14969	73215.35317	2474.47750
0.14928	73164.47267	2473.47750
0.14887	73113.63430	2472.47750
0.14846	73062.83793	2471.47750
0.14805	73012.08341	2470.47750
0.14765	72961.37059	2469.47750
0.14724	72910.69932	2468.47750
0.14684	72860.06946	2467.47750
0.14643	72809.48088	2466.47750
0.14603	72758.93341	2465.47750
0.14563	72708.42693	2464.47750
0.14523	72657.96129	2463.47750
0.14483	72607.53634	2462.47750
0.14443	72557.15196	2461.47750
0.14403	72506.80799	2460.47750
0.14363	72456.50430	2459.47750
0.14324	72406.24074	2458.47750
0.14284	72356.01719	2457.47750
0.14245	72305.83350	2456.47750
0.14205	72255.68954	2455.47750
0.14166	72205.58517	2454.47750
0.14127	72155.52025	2453.47750
0.14088	72105.49464	2452.47750
0.14049	72055.50822	2451.47750
0.14010	72005.56085	2450.47750
0.13971	71955.65239	2449.47750
0.13932	71905.78272	2448.47750
0.13893	71855.95169	2447.47750
0.13854	71806.15918	2446.47750
0.13816	71756.40505	2445.47750
0.13777	71706.68918	2444.47750
0.13739	71657.01144	2443.47750
0.13700	71607.37169	2442.47750
0.13662	71557.76980	2441.47750
0.13624	71508.20565	2440.47750
0.13586	71458.67910	2439.47750
0.13548	71409.19004	2438.47750
