Mole fraction of liquid	Heat per mole [J]	Temperature [K]
1.00000	1.31054E5	3100.92607
0.99998	1.31049E5	3100.83045
0.99593	1.30846E5	3099.83045
0.99190	1.30643E5	3098.83045
0.98790	1.30441E5	3097.83045
0.98392	1.30240E5	3096.83045
0.97996	1.30040E5	3095.83045
0.97603	1.29841E5	3094.83045
0.97211	1.29644E5	3093.83045
0.96822	1.29447E5	3092.83045
0.96436	1.29251E5	3091.83045
0.96051	1.29056E5	3090.83045
0.95669	1.28861E5	3089.83045
0.95288	1.28668E5	3088.83045
0.94910	1.28476E5	3087.83045
0.94534	1.28285E5	3086.83045
0.94160	1.28094E5	3085.83045
0.93788	1.27904E5	3084.83045
0.93419	1.27716E5	3083.83045
0.93051	1.27528E5	3082.83045
0.92685	1.27341E5	3081.83045
0.92322	1.27155E5	3080.83045
0.91960	1.26970E5	3079.83045
0.91601	1.26785E5	3078.83045
0.91243	1.26602E5	3077.83045
0.90887	1.26419E5	3076.83045
0.90534	1.26238E5	3075.83045
0.90182	1.26057E5	3074.83045
0.89832	1.25876E5	3073.83045
0.89485	1.25697E5	3072.83045
0.89139	1.25519E5	3071.83045
0.88795	1.25341E5	3070.83045
0.88452	1.25164E5	3069.83045
0.88112	1.24988E5	3068.83045
0.87774	1.24813E5	3067.83045
0.87437	1.24638E5	3066.83045
0.87102	1.24464E5	3065.83045
0.86769	1.24291E5	3064.83045
0.86438	1.24119E5	3063.83045
0.86109	1.23948E5	3062.83045
0.85781	1.23777E5	3061.83045
0.85455	1.23607E5	3060.83045
0.85131	1.23438E5	3059.83045
0.84809	1.23269E5	3058.83045
0.84488	1.23101E5	3057.83045
0.84170	1.22934E5	3056.83045
0.83852	1.22768E5	3055.83045
0.83537	1.22603E5	3054.83045
0.83223	1.22438E5	3053.83045
0.82911	1.22274E5	3052.83045
0.82600	1.22110E5	3051.83045
0.82291	1.21947E5	3050.83045
0.81984	1.21785E5	3049.83045
0.81679	1.21624E5	3048.83045
0.81375	1.21463E5	3047.83045
0.81072	1.21303E5	3046.83045
0.80771	1.21144E5	3045.83045
0.80472	1.20985E5	3044.83045
0.80174	1.20827E5	3043.83045
0.79878	1.20670E5	3042.83045
0.79584	1.20513E5	3041.83045
0.79291	1.20357E5	3040.83045
0.78999	1.20202E5	3039.83045
0.78709	1.20047E5	3038.83045
0.78421	1.19893E5	3037.83045
0.78134	1.19739E5	3036.83045
0.77848	1.19586E5	3035.83045
0.77564	1.19434E5	3034.83045
0.77281	1.19282E5	3033.83045
0.77000	1.19131E5	3032.83045
0.76720	1.18981E5	3031.83045
0.76442	1.18831E5	3030.83045
0.76165	1.18682E5	3029.83045
0.75890	1.18533E5	3028.83045
0.75616	1.18385E5	3027.83045
0.75343	1.18238E5	3026.83045
0.75072	1.18091E5	3025.83045
0.74802	1.17945E5	3024.83045
0.74534	1.17799E5	3023.83045
0.74266	1.17654E5	3022.83045
0.74001	1.17509E5	3021.83045
0.73736	1.17365E5	3020.83045
0.73473	1.17222E5	3019.83045
0.73211	1.17079E5	3018.83045
0.72951	1.16937E5	3017.83045
0.72692	1.16795E5	3016.83045
0.72434	1.16654E5	3015.83045
0.72177	1.16513E5	3014.83045
0.71922	1.16373E5	3013.83045
0.71668	1.16233E5	3012.83045
0.71415	1.16094E5	3011.83045
0.71163	1.15955E5	3010.83045
0.70913	1.15817E5	3009.83045
0.70664	1.15680E5	3008.83045
0.70416	1.15543E5	3007.83045
0.70170	1.15406E5	3006.83045
0.69924	1.15270E5	3005.83045
0.69680	1.15135E5	3004.83045
0.69437	1.15000E5	3003.83045
0.69195	1.14865E5	3002.83045
0.68955	1.14731E5	3001.83045
0.68715	1.14598E5	3000.83045
0.68477	1.14465E5	2999.83045
0.68240	1.14332E5	2998.83045
0.68004	1.14200E5	2997.83045
0.67769	1.14069E5	2996.83045
0.67536	1.13938E5	2995.83045
0.67303	1.13807E5	2994.83045
0.67072	1.13677E5	2993.83045
0.66842	1.13547E5	2992.83045
0.66612	1.13418E5	2991.83045
0.66384	1.13289E5	2990.83045
0.66157	1.13161E5	2989.83045
0.65931	1.13033E5	2988.83045
0.65707	1.12906E5	2987.83045
0.65483	1.12779E5	2986.83045
0.65260	1.12652E5	2985.83045
0.65039	1.12526E5	2984.83045
0.64818	1.12401E5	2983.83045
0.64599	1.12275E5	2982.83045
0.64380	1.12151E5	2981.83045
0.64163	1.12026E5	2980.83045
0.63947	1.11902E5	2979.83045
0.63731	1.11779E5	2978.83045
0.63517	1.11656E5	2977.83045
0.63304	1.11533E5	2976.83045
0.63091	1.11411E5	2975.83045
0.62880	1.11289E5	2974.83045
0.62670	1.11168E5	2973.83045
0.62460	1.11047E5	2972.83045
0.62252	1.10927E5	2971.83045
0.62044	1.10806E5	2970.83045
0.61838	1.10687E5	2969.83045
0.61633	1.10567E5	2968.83045
0.61428	1.10448E5	2967.83045
0.61225	1.10330E5	2966.83045
0.61022	1.10212E5	2965.83045
0.60820	1.10094E5	2964.83045
0.60620	1.09976E5	2963.83045
0.60420	1.09859E5	2962.83045
0.60221	1.09743E5	2961.83045
0.60023	1.09627E5	2960.83045
0.59826	1.09511E5	2959.83045
0.59630	1.09395E5	2958.83045
0.59434	1.09280E5	2957.83045
0.59240	1.09165E5	2956.83045
0.59047	1.09051E5	2955.83045
0.58854	1.08937E5	2954.83045
0.58662	1.08823E5	2953.83045
0.58471	1.08710E5	2952.83045
0.58281	1.08597E5	2951.83045
0.58092	1.08485E5	2950.83045
0.57904	1.08372E5	2949.83045
0.57717	1.08260E5	2948.83045
0.57530	1.08149E5	2947.83045
0.57344	1.08038E5	2946.83045
0.57159	1.07927E5	2945.83045
0.56975	1.07816E5	2944.83045
0.56792	1.07706E5	2943.83045
0.56610	1.07597E5	2942.83045
0.56428	1.07487E5	2941.83045
0.56247	1.07378E5	2940.83045
0.56067	1.07269E5	2939.83045
0.55888	1.07161E5	2938.83045
0.55710	1.07053E5	2937.83045
0.55532	1.06945E5	2936.83045
0.55356	1.06837E5	2935.83045
0.55180	1.06730E5	2934.83045
0.55004	1.06623E5	2933.83045
0.54830	1.06517E5	2932.83045
0.54656	1.06411E5	2931.83045
0.54483	1.06305E5	2930.83045
0.54311	1.06199E5	2929.83045
0.54140	1.06094E5	2928.83045
0.53969	1.05989E5	2927.83045
0.53799	1.05884E5	2926.83045
0.53630	1.05780E5	2925.83045
0.53462	1.05676E5	2924.83045
0.53294	1.05572E5	2923.83045
0.53127	1.05469E5	2922.83045
0.52961	1.05366E5	2921.83045
0.52795	1.05263E5	2920.83045
0.52631	1.05160E5	2919.83045
0.52467	1.05058E5	2918.83045
0.52303	1.04956E5	2917.83045
0.52141	1.04854E5	2916.83045
0.51979	1.04753E5	2915.83045
0.51817	1.04652E5	2914.83045
0.51657	1.04551E5	2913.83045
0.51497	1.04450E5	2912.83045
0.51338	1.04350E5	2911.83045
0.51179	1.04250E5	2910.83045
0.51022	1.04151E5	2909.83045
0.50865	1.04051E5	2908.83045
0.50708	1.03952E5	2907.83045
0.50552	1.03853E5	2906.83045
0.50397	1.03755E5	2905.83045
0.50243	1.03656E5	2904.83045
0.50089	1.03558E5	2903.83045
0.49936	1.03460E5	2902.83045
0.49783	1.03363E5	2901.83045
0.49631	1.03266E5	2900.83045
0.49480	1.03169E5	2899.83045
0.49330	1.03072E5	2898.83045
0.49180	1.02975E5	2897.83045
0.49030	1.02879E5	2896.83045
0.48882	1.02783E5	2895.83045
0.48733	1.02688E5	2894.83045
0.48586	1.02592E5	2893.83045
0.48439	1.02497E5	2892.83045
0.48293	1.02402E5	2891.83045
0.48147	1.02307E5	2890.83045
0.48002	1.02213E5	2889.83045
0.47858	1.02119E5	2888.83045
0.47714	1.02025E5	2887.83045
0.47571	1.01931E5	2886.83045
0.47428	1.01838E5	2885.83045
0.47286	1.01744E5	2884.83045
0.47145	1.01651E5	2883.83045
0.47004	1.01559E5	2882.83045
0.46864	1.01466E5	2881.83045
0.46724	1.01374E5	2880.83045
0.46585	1.01282E5	2879.83045
0.46446	1.01190E5	2878.83045
0.46308	1.01098E5	2877.83045
0.46171	1.01007E5	2876.83045
0.46034	1.00916E5	2875.83045
0.45898	1.00825E5	2874.83045
0.45762	1.00734E5	2873.83045
0.45627	1.00644E5	2872.83045
0.45492	1.00554E5	2871.83045
0.45358	1.00464E5	2870.83045
0.45225	1.00374E5	2869.83045
0.45092	1.00284E5	2868.83045
0.44959	1.00195E5	2867.83045
0.44827	1.00106E5	2866.83045
0.44696	1.00017E5	2865.83045
0.44565	99928.29256	2864.83045
0.44435	99839.81985	2863.83045
0.44305	99751.56009	2862.83045
0.44176	99663.51209	2861.83045
0.44047	99575.67470	2860.83045
0.43919	99488.04676	2859.83045
0.43791	99400.62713	2858.83045
0.43664	99313.41468	2857.83045
0.43537	99226.40827	2856.83045
0.43411	99139.60678	2855.83045
0.43285	99053.00910	2854.83045
0.43160	98966.61412	2853.83045
0.43035	98880.42074	2852.83045
0.42911	98794.42788	2851.83045
0.42787	98708.63443	2850.83045
0.42664	98623.03934	2849.83045
0.42541	98537.64152	2848.83045
0.42419	98452.43992	2847.83045
0.42297	98367.43348	2846.83045
0.42175	98282.62115	2845.83045
0.42055	98198.00190	2844.83045
0.41934	98113.57468	2843.83045
0.41814	98029.33846	2842.83045
0.41695	97945.29224	2841.83045
0.41576	97861.43499	2840.83045
0.41457	97777.76571	2839.83045
0.41339	97694.28340	2838.83045
0.41222	97610.98706	2837.83045
0.41105	97527.87571	2836.83045
0.40988	97444.94836	2835.83045
0.40872	97362.20405	2834.83045
0.40756	97279.64180	2833.83045
0.40641	97197.26065	2832.83045
0.40526	97115.05966	2831.83045
0.40411	97033.03786	2830.83045
0.40297	96951.19433	2829.83045
0.40184	96869.52811	2828.83045
0.40071	96788.03829	2827.83045
0.39958	96706.72394	2826.83045
0.39846	96625.58414	2825.83045
0.39734	96544.61798	2824.83045
0.39622	96463.82455	2823.83045
0.39511	96383.20296	2822.83045
0.39401	96302.75231	2821.83045
0.39291	96222.47171	2820.83045
0.39181	96142.36028	2819.83045
0.39072	96062.41715	2818.83045
0.38963	95982.64144	2817.83045
0.38854	95903.03229	2816.83045
0.38746	95823.58884	2815.83045
0.38639	95744.31023	2814.83045
0.38531	95665.19562	2813.83045
0.38424	95586.24416	2812.83045
0.38318	95507.45502	2811.83045
0.38212	95428.82736	2810.83045
0.38106	95350.36036	2809.83045
0.38001	95272.05320	2808.83045
0.37896	95193.90506	2807.83045
0.37792	95115.91513	2806.83045
0.37688	95038.08261	2805.83045
0.37584	94960.40668	2804.83045
0.37481	94882.88657	2803.83045
0.37378	94805.52148	2802.83045
0.37275	94728.31062	2801.83045
0.37173	94651.25321	2800.83045
0.37071	94574.34848	2799.83045
0.36970	94497.59566	2798.83045
0.36869	94420.99399	2797.83045
0.36768	94344.54269	2796.83045
0.36668	94268.24103	2795.83045
0.36568	94192.08824	2794.83045
0.36468	94116.08358	2793.83045
0.36369	94040.22632	2792.83045
0.36270	93964.51570	2791.83045
0.36172	93888.95101	2790.83045
0.36074	93813.53151	2789.83045
0.35976	93738.25648	2788.83045
0.35879	93663.12521	2787.83045
0.35782	93588.13698	2786.83045
0.35685	93513.29107	2785.83045
0.35589	93438.58680	2784.83045
0.35493	93364.02345	2783.83045
0.35397	93289.60033	2782.83045
0.35302	93215.31675	2781.83045
0.35207	93141.17202	2780.83045
0.35112	93067.16546	2779.83045
0.35018	92993.29639	2778.83045
0.34924	92919.56414	2777.83045
0.34830	92845.96803	2776.83045
0.34737	92772.50741	2775.83045
0.34644	92699.18160	2774.83045
0.34552	92625.98996	2773.83045
0.34459	92552.93182	2772.83045
0.34367	92480.00654	2771.83045
0.34276	92407.21347	2770.83045
0.34185	92334.55197	2769.83045
0.34094	92262.02141	2768.83045
0.34003	92189.62115	2767.83045
0.33913	92117.35055	2766.83045
0.33823	92045.20900	2765.83045
0.33733	91973.19588	2764.83045
0.33644	91901.31056	2763.83045
0.33555	91829.55243	2762.83045
0.33466	91757.92087	2761.83045
0.33378	91686.41529	2760.83045
0.33290	91615.03509	2759.83045
0.33202	91543.77965	2758.83045
0.33114	91472.64838	2757.83045
0.33027	91401.64070	2756.83045
0.32940	91330.75601	2755.83045
0.32854	91259.99374	2754.83045
0.32768	91189.35329	2753.83045
0.32682	91118.83409	2752.83045
0.32596	91048.43557	2751.83045
0.32511	90978.15715	2750.83045
0.32426	90907.99827	2749.83045
0.32341	90837.95836	2748.83045
0.32256	90768.03687	2747.83045
0.32172	90698.23324	2746.83045
0.32088	90628.54691	2745.83045
0.32005	90558.97733	2744.83045
0.31921	90489.52396	2743.83045
0.31838	90420.18625	2742.83045
0.31756	90350.96366	2741.83045
0.31673	90281.85565	2740.83045
0.31591	90212.86170	2739.83045
0.31509	90143.98127	2738.83045
0.31428	90075.21382	2737.83045
0.31346	90006.55885	2736.83045
0.31265	89938.01582	2735.83045
0.31184	89869.58423	2734.83045
0.31104	89801.26354	2733.83045
0.31024	89733.05326	2732.83045
0.30944	89664.95287	2731.83045
0.30864	89596.96186	2730.83045
0.30785	89529.07974	2729.83045
0.30706	89461.30600	2728.83045
0.30627	89393.64015	2727.83045
0.30548	89326.08170	2726.83045
0.30470	89258.63014	2725.83045
0.30392	89191.28500	2724.83045
0.30314	89124.04579	2723.83045
0.30236	89056.91202	2722.83045
0.30159	88989.88322	2721.83045
0.30082	88922.95891	2720.83045
0.30005	88856.13862	2719.83045
0.29929	88789.42187	2718.83045
0.29853	88722.80820	2717.83045
0.29777	88656.29714	2716.83045
0.29701	88589.88823	2715.83045
0.29625	88523.58101	2714.83045
0.29550	88457.37502	2713.83045
0.29475	88391.26980	2712.83045
0.29400	88325.26491	2711.83045
0.29326	88259.35989	2710.83045
0.29252	88193.55430	2709.83045
0.29178	88127.84769	2708.83045
0.29104	88062.23963	2707.83045
0.29030	87996.72967	2706.83045
0.28957	87931.31738	2705.83045
0.28884	87866.00231	2704.83045
0.28811	87800.78405	2703.83045
0.28739	87735.66216	2702.83045
0.28666	87670.63622	2701.83045
0.28594	87605.70580	2700.83045
0.28523	87540.87048	2699.83045
0.28451	87476.12984	2698.83045
0.28380	87411.48347	2697.83045
0.28308	87346.93094	2696.83045
0.28237	87282.47186	2695.83045
0.28167	87218.10580	2694.83045
0.28096	87153.83237	2693.83045
0.28026	87089.65115	2692.83045
0.27956	87025.56175	2691.83045
0.27886	86961.56376	2690.83045
0.27817	86897.65679	2689.83045
0.27748	86833.84044	2688.83045
0.27678	86770.11432	2687.83045
0.27610	86706.47804	2686.83045
0.27541	86642.93120	2685.83045
0.27472	86579.47342	2684.83045
0.27404	86516.10432	2683.83045
0.27336	86452.82352	2682.83045
0.27268	86389.63063	2681.83045
0.27201	86326.52528	2680.83045
0.27134	86263.50709	2679.83045
0.27066	86200.57568	2678.83045
0.27000	86137.73070	2677.83045
0.26933	86074.97176	2676.83045
0.26866	86012.29850	2675.83045
0.26800	85949.71055	2674.83045
0.26734	85887.20755	2673.83045
0.26668	85824.78915	2672.83045
0.26602	85762.45497	2671.83045
0.26537	85700.20467	2670.83045
0.26472	85638.03789	2669.83045
0.26407	85575.95427	2668.83045
0.26342	85513.95347	2667.83045
0.26277	85452.03514	2666.83045
0.26213	85390.19892	2665.83045
0.26149	85328.44448	2664.83045
0.26085	85266.77147	2663.83045
0.26021	85205.17955	2662.83045
0.25957	85143.66837	2661.83045
0.25894	85082.23761	2660.83045
0.25831	85020.88693	2659.83045
0.25768	84959.61599	2658.83045
0.25705	84898.42446	2657.83045
0.25642	84837.31201	2656.83045
0.25580	84776.27832	2655.83045
0.25517	84715.32305	2654.83045
0.25455	84654.44588	2653.83045
0.25393	84593.64650	2652.83045
0.25332	84532.92457	2651.83045
0.25270	84472.27978	2650.83045
0.25209	84411.71181	2649.83045
0.25148	84351.22035	2648.83045
0.25087	84290.80508	2647.83045
0.25026	84230.46569	2646.83045
0.24966	84170.20187	2645.83045
0.24905	84110.01331	2644.83045
0.24845	84049.89971	2643.83045
0.24785	83989.86075	2642.83045
0.24725	83929.89614	2641.83045
0.24666	83870.00557	2640.83045
0.24606	83810.18875	2639.83045
0.24547	83750.44537	2638.83045
0.24488	83690.77513	2637.83045
0.24429	83631.17775	2636.83045
0.24370	83571.65293	2635.83045
0.24312	83512.20037	2634.83045
0.24253	83452.81978	2633.83045
0.24195	83393.51088	2632.83045
0.24137	83334.27338	2631.83045
0.24079	83275.10699	2630.83045
0.24021	83216.01143	2629.83045
0.23964	83156.98642	2628.83045
0.23907	83098.03166	2627.83045
0.23849	83039.14690	2626.83045
0.23792	82980.33184	2625.83045
0.23736	82921.58621	2624.83045
0.23679	82862.90973	2623.83045
0.23622	82804.30213	2622.83045
0.23566	82745.76315	2621.83045
0.23510	82687.29250	2620.83045
0.23454	82628.88992	2619.83045
0.23398	82570.55513	2618.83045
0.23343	82512.28789	2617.83045
0.23287	82454.08791	2616.83045
0.23232	82395.95494	2615.83045
0.23177	82337.88871	2614.83045
0.23122	82279.88897	2613.83045
0.23067	82221.95544	2612.83045
0.23012	82164.08789	2611.83045
0.22957	82106.28604	2610.83045
0.22903	82048.54965	2609.83045
0.22849	81990.87846	2608.83045
0.22795	81933.27221	2607.83045
0.22741	81875.73067	2606.83045
0.22687	81818.25356	2605.83045
0.22634	81760.84066	2604.83045
0.22580	81703.49171	2603.83045
0.22527	81646.20647	2602.83045
0.22474	81588.98468	2601.83045
0.22421	81531.82612	2600.83045
0.22368	81474.73053	2599.83045
0.22315	81417.69767	2598.83045
0.22263	81360.72732	2597.83045
0.22211	81303.81922	2596.83045
0.22158	81246.97314	2595.83045
0.22106	81190.18885	2594.83045
0.22054	81133.46611	2593.83045
0.22003	81076.80469	2592.83045
0.21951	81020.20435	2591.83045
0.21900	80963.66487	2590.83045
0.21848	80907.18602	2589.83045
0.21797	80850.76757	2588.83045
0.21746	80794.40929	2587.83045
0.21695	80738.11095	2586.83045
0.21645	80681.87234	2585.83045
0.21594	80625.69322	2584.83045
0.21543	80569.57339	2583.83045
0.21493	80513.51260	2582.83045
0.21443	80457.51065	2581.83045
0.21393	80401.56732	2580.83045
0.21343	80345.68238	2579.83045
0.21293	80289.85563	2578.83045
0.21244	80234.08684	2577.83045
0.21194	80178.37580	2576.83045
0.21145	80122.72231	2575.83045
0.21096	80067.12614	2574.83045
0.21047	80011.58709	2573.83045
0.20998	79956.10494	2572.83045
0.20949	79900.67949	2571.83045
0.20901	79845.31054	2570.83045
0.20852	79789.99786	2569.83045
0.20804	79734.74127	2568.83045
0.20755	79679.54054	2567.83045
0.20707	79624.39549	2566.83045
0.20659	79569.30591	2565.83045
0.20612	79514.27159	2564.83045
0.20564	79459.29234	2563.83045
0.20516	79404.36796	2562.83045
0.20469	79349.49825	2561.83045
0.20422	79294.68301	2560.83045
0.20374	79239.92204	2559.83045
0.20327	79185.21516	2558.83045
0.20280	79130.56216	2557.83045
0.20234	79075.96286	2556.83045
0.20187	79021.41706	2555.83045
0.20140	78966.92457	2554.83045
0.20094	78912.48520	2553.83045
0.20048	78858.09876	2552.83045
0.20002	78803.76507	2551.83045
0.19955	78749.48393	2550.83045
0.19910	78695.25516	2549.83045
0.19864	78641.07857	2548.83045
0.19818	78586.95398	2547.83045
0.19773	78532.88121	2546.83045
0.19727	78478.86008	2545.83045
0.19682	78424.89039	2544.83045
0.19637	78370.97198	2543.83045
0.19592	78317.10466	2542.83045
0.19547	78263.28826	2541.83045
0.19502	78209.52258	2540.83045
0.19457	78155.80747	2539.83045
0.19413	78102.14274	2538.83045
0.19368	78048.52821	2537.83045
0.19324	77994.96372	2536.83045
0.19280	77941.44909	2535.83045
0.19236	77887.98414	2534.83045
0.19192	77834.56871	2533.83045
0.19148	77781.20262	2532.83045
0.19104	77727.88570	2531.83045
0.19060	77674.61779	2530.83045
0.19017	77621.39872	2529.83045
0.18973	77568.22832	2528.83045
0.18930	77515.10641	2527.83045
0.18887	77462.03285	2526.83045
0.18844	77409.00746	2525.83045
0.18801	77356.03007	2524.83045
0.18758	77303.10053	2523.83045
0.18715	77250.21867	2522.83045
0.18673	77197.38433	2521.83045
0.18630	77144.59735	2520.83045
0.18588	77091.85757	2519.83045
0.18546	77039.16483	2518.83045
0.18503	76986.51898	2517.83045
0.18461	76933.91984	2516.83045
0.18419	76881.36728	2515.83045
0.18377	76828.86112	2514.83045
0.18336	76776.40122	2513.83045
0.18294	76723.98743	2512.83045
0.18253	76671.61958	2511.83045
0.18211	76619.29752	2510.83045
0.18170	76567.02111	2509.83045
0.18129	76514.79019	2508.83045
0.18088	76462.60461	2507.83045
0.18047	76410.46422	2506.83045
0.18006	76358.36888	2505.83045
0.17965	76306.31842	2504.83045
0.17924	76254.31271	2503.83045
0.17884	76202.35160	2502.83045
0.17843	76150.43494	2501.83045
0.17803	76098.56258	2500.83045
0.17762	76046.73439	2499.83045
0.17722	75994.95021	2498.83045
0.17682	75943.20991	2497.83045
0.17642	75891.51333	2496.83045
0.17602	75839.86035	2495.83045
0.17563	75788.25081	2494.83045
0.17523	75736.68458	2493.83045
0.17483	75685.16152	2492.83045
0.17444	75633.68148	2491.83045
0.17404	75582.24434	2490.83045
0.17365	75530.84994	2489.83045
0.17326	75479.49816	2488.83045
0.17287	75428.18885	2487.83045
0.17248	75376.92189	2486.83045
0.17209	75325.69713	2485.83045
0.17170	75274.51444	2484.83045
0.17131	75223.37369	2483.83045
0.17093	75172.27475	2482.83045
0.17054	75121.21748	2481.83045
0.17016	75070.20174	2480.83045
0.16978	75019.22742	2479.83045
0.16939	74968.29437	2478.83045
0.16901	74917.40247	2477.83045
0.16863	74866.55158	2476.83045
0.16825	74815.74159	2475.83045
0.16787	74764.97236	2474.83045
0.16750	74714.24376	2473.83045
0.16712	74663.55566	2472.83045
0.16674	74612.90795	2471.83045
0.16637	74562.30049	2470.83045
0.16599	74511.73316	2469.83045
0.16562	74461.20583	2468.83045
0.16525	74410.71839	2467.83045
0.16488	74360.27070	2466.83045
0.16451	74309.86265	2465.83045
0.16414	74259.49411	2464.83045
0.16377	74209.16496	2463.83045
0.16340	74158.87508	2462.83045
0.16303	74108.62435	2461.83045
0.16267	74058.41264	2460.83045
0.16230	74008.23985	2459.83045
0.16194	73958.10585	2458.83045
0.16158	73908.01053	2457.83045
0.16121	73857.95376	2456.83045
0.16085	73807.93542	2455.83045
0.16049	73757.95541	2454.83045
0.16013	73708.01361	2453.83045
0.15977	73658.10990	2452.83045
0.15941	73608.24416	2451.83045
0.15905	73558.41629	2450.83045
0.15870	73508.62616	2449.83045
0.15834	73458.87367	2448.83045
0.15799	73409.15870	2447.83045
0.15763	73359.48115	2446.83045
0.15728	73309.84089	2445.83045
0.15693	73260.23782	2444.83045
