Mole fraction of liquid	Heat per mole [J]	Temperature [K]
1.00000	1.31266E5	3102.85526
0.99998	1.31261E5	3102.75964
0.99594	1.31059E5	3101.75964
0.99192	1.30857E5	3100.75964
0.98792	1.30657E5	3099.75964
0.98395	1.30458E5	3098.75964
0.98000	1.30259E5	3097.75964
0.97607	1.30062E5	3096.75964
0.97217	1.29865E5	3095.75964
0.96829	1.29670E5	3094.75964
0.96443	1.29475E5	3093.75964
0.96059	1.29281E5	3092.75964
0.95678	1.29089E5	3091.75964
0.95298	1.28897E5	3090.75964
0.94921	1.28706E5	3089.75964
0.94546	1.28516E5	3088.75964
0.94173	1.28327E5	3087.75964
0.93802	1.28139E5	3086.75964
0.93433	1.27951E5	3085.75964
0.93066	1.27765E5	3084.75964
0.92702	1.27579E5	3083.75964
0.92339	1.27395E5	3082.75964
0.91978	1.27211E5	3081.75964
0.91620	1.27028E5	3080.75964
0.91263	1.26846E5	3079.75964
0.90908	1.26664E5	3078.75964
0.90556	1.26484E5	3077.75964
0.90205	1.26304E5	3076.75964
0.89856	1.26125E5	3075.75964
0.89509	1.25947E5	3074.75964
0.89164	1.25770E5	3073.75964
0.88821	1.25594E5	3072.75964
0.88480	1.25418E5	3071.75964
0.88141	1.25243E5	3070.75964
0.87804	1.25069E5	3069.75964
0.87468	1.24896E5	3068.75964
0.87134	1.24723E5	3067.75964
0.86802	1.24552E5	3066.75964
0.86472	1.24381E5	3065.75964
0.86144	1.24211E5	3064.75964
0.85817	1.24041E5	3063.75964
0.85492	1.23872E5	3062.75964
0.85169	1.23704E5	3061.75964
0.84848	1.23537E5	3060.75964
0.84528	1.23371E5	3059.75964
0.84211	1.23205E5	3058.75964
0.83894	1.23040E5	3057.75964
0.83580	1.22876E5	3056.75964
0.83267	1.22712E5	3055.75964
0.82956	1.22549E5	3054.75964
0.82647	1.22387E5	3053.75964
0.82339	1.22225E5	3052.75964
0.82033	1.22064E5	3051.75964
0.81728	1.21904E5	3050.75964
0.81425	1.21745E5	3049.75964
0.81124	1.21586E5	3048.75964
0.80824	1.21428E5	3047.75964
0.80526	1.21270E5	3046.75964
0.80229	1.21113E5	3045.75964
0.79934	1.20957E5	3044.75964
0.79641	1.20801E5	3043.75964
0.79349	1.20647E5	3042.75964
0.79058	1.20492E5	3041.75964
0.78769	1.20339E5	3040.75964
0.78482	1.20186E5	3039.75964
0.78196	1.20033E5	3038.75964
0.77912	1.19882E5	3037.75964
0.77629	1.19730E5	3036.75964
0.77347	1.19580E5	3035.75964
0.77067	1.19430E5	3034.75964
0.76789	1.19281E5	3033.75964
0.76511	1.19132E5	3032.75964
0.76236	1.18984E5	3031.75964
0.75961	1.18836E5	3030.75964
0.75688	1.18689E5	3029.75964
0.75417	1.18543E5	3028.75964
0.75147	1.18397E5	3027.75964
0.74878	1.18252E5	3026.75964
0.74611	1.18107E5	3025.75964
0.74345	1.17963E5	3024.75964
0.74080	1.17820E5	3023.75964
0.73817	1.17677E5	3022.75964
0.73555	1.17535E5	3021.75964
0.73294	1.17393E5	3020.75964
0.73035	1.17251E5	3019.75964
0.72776	1.17111E5	3018.75964
0.72520	1.16971E5	3017.75964
0.72264	1.16831E5	3016.75964
0.72010	1.16692E5	3015.75964
0.71757	1.16553E5	3014.75964
0.71505	1.16415E5	3013.75964
0.71255	1.16277E5	3012.75964
0.71006	1.16140E5	3011.75964
0.70758	1.16004E5	3010.75964
0.70511	1.15868E5	3009.75964
0.70266	1.15732E5	3008.75964
0.70022	1.15597E5	3007.75964
0.69779	1.15463E5	3006.75964
0.69537	1.15329E5	3005.75964
0.69296	1.15195E5	3004.75964
0.69057	1.15062E5	3003.75964
0.68818	1.14930E5	3002.75964
0.68581	1.14798E5	3001.75964
0.68345	1.14666E5	3000.75964
0.68110	1.14535E5	2999.75964
0.67877	1.14405E5	2998.75964
0.67644	1.14274E5	2997.75964
0.67413	1.14145E5	2996.75964
0.67183	1.14016E5	2995.75964
0.66953	1.13887E5	2994.75964
0.66725	1.13758E5	2993.75964
0.66498	1.13631E5	2992.75964
0.66273	1.13503E5	2991.75964
0.66048	1.13376E5	2990.75964
0.65824	1.13250E5	2989.75964
0.65602	1.13124E5	2988.75964
0.65380	1.12998E5	2987.75964
0.65160	1.12873E5	2986.75964
0.64940	1.12748E5	2985.75964
0.64722	1.12624E5	2984.75964
0.64505	1.12500E5	2983.75964
0.64288	1.12377E5	2982.75964
0.64073	1.12254E5	2981.75964
0.63859	1.12131E5	2980.75964
0.63646	1.12009E5	2979.75964
0.63433	1.11887E5	2978.75964
0.63222	1.11766E5	2977.75964
0.63012	1.11645E5	2976.75964
0.62803	1.11525E5	2975.75964
0.62594	1.11404E5	2974.75964
0.62387	1.11285E5	2973.75964
0.62181	1.11165E5	2972.75964
0.61976	1.11046E5	2971.75964
0.61771	1.10928E5	2970.75964
0.61568	1.10810E5	2969.75964
0.61365	1.10692E5	2968.75964
0.61164	1.10575E5	2967.75964
0.60963	1.10458E5	2966.75964
0.60764	1.10341E5	2965.75964
0.60565	1.10225E5	2964.75964
0.60367	1.10109E5	2963.75964
0.60170	1.09994E5	2962.75964
0.59974	1.09879E5	2961.75964
0.59779	1.09764E5	2960.75964
0.59585	1.09650E5	2959.75964
0.59392	1.09536E5	2958.75964
0.59200	1.09422E5	2957.75964
0.59008	1.09309E5	2956.75964
0.58817	1.09196E5	2955.75964
0.58628	1.09083E5	2954.75964
0.58439	1.08971E5	2953.75964
0.58251	1.08859E5	2952.75964
0.58064	1.08748E5	2951.75964
0.57877	1.08637E5	2950.75964
0.57692	1.08526E5	2949.75964
0.57507	1.08416E5	2948.75964
0.57323	1.08305E5	2947.75964
0.57140	1.08196E5	2946.75964
0.56958	1.08086E5	2945.75964
0.56777	1.07977E5	2944.75964
0.56596	1.07868E5	2943.75964
0.56417	1.07760E5	2942.75964
0.56238	1.07652E5	2941.75964
0.56060	1.07544E5	2940.75964
0.55882	1.07437E5	2939.75964
0.55706	1.07330E5	2938.75964
0.55530	1.07223E5	2937.75964
0.55355	1.07116E5	2936.75964
0.55181	1.07010E5	2935.75964
0.55008	1.06904E5	2934.75964
0.54835	1.06799E5	2933.75964
0.54663	1.06694E5	2932.75964
0.54492	1.06589E5	2931.75964
0.54322	1.06484E5	2930.75964
0.54152	1.06380E5	2929.75964
0.53983	1.06276E5	2928.75964
0.53815	1.06172E5	2927.75964
0.53648	1.06069E5	2926.75964
0.53481	1.05966E5	2925.75964
0.53315	1.05863E5	2924.75964
0.53150	1.05760E5	2923.75964
0.52986	1.05658E5	2922.75964
0.52822	1.05556E5	2921.75964
0.52659	1.05455E5	2920.75964
0.52497	1.05353E5	2919.75964
0.52335	1.05252E5	2918.75964
0.52174	1.05152E5	2917.75964
0.52014	1.05051E5	2916.75964
0.51854	1.04951E5	2915.75964
0.51696	1.04851E5	2914.75964
0.51538	1.04751E5	2913.75964
0.51380	1.04652E5	2912.75964
0.51223	1.04553E5	2911.75964
0.51067	1.04454E5	2910.75964
0.50912	1.04356E5	2909.75964
0.50757	1.04257E5	2908.75964
0.50603	1.04159E5	2907.75964
0.50449	1.04062E5	2906.75964
0.50297	1.03964E5	2905.75964
0.50144	1.03867E5	2904.75964
0.49993	1.03770E5	2903.75964
0.49842	1.03673E5	2902.75964
0.49692	1.03577E5	2901.75964
0.49542	1.03481E5	2900.75964
0.49393	1.03385E5	2899.75964
0.49245	1.03289E5	2898.75964
0.49097	1.03194E5	2897.75964
0.48950	1.03099E5	2896.75964
0.48804	1.03004E5	2895.75964
0.48658	1.02909E5	2894.75964
0.48513	1.02815E5	2893.75964
0.48368	1.02720E5	2892.75964
0.48224	1.02626E5	2891.75964
0.48081	1.02533E5	2890.75964
0.47938	1.02439E5	2889.75964
0.47796	1.02346E5	2888.75964
0.47654	1.02253E5	2887.75964
0.47513	1.02161E5	2886.75964
0.47372	1.02068E5	2885.75964
0.47232	1.01976E5	2884.75964
0.47093	1.01884E5	2883.75964
0.46954	1.01792E5	2882.75964
0.46816	1.01700E5	2881.75964
0.46679	1.01609E5	2880.75964
0.46542	1.01518E5	2879.75964
0.46405	1.01427E5	2878.75964
0.46269	1.01337E5	2877.75964
0.46134	1.01246E5	2876.75964
0.45999	1.01156E5	2875.75964
0.45865	1.01066E5	2874.75964
0.45731	1.00976E5	2873.75964
0.45598	1.00887E5	2872.75964
0.45466	1.00797E5	2871.75964
0.45333	1.00708E5	2870.75964
0.45202	1.00619E5	2869.75964
0.45071	1.00531E5	2868.75964
0.44941	1.00442E5	2867.75964
0.44811	1.00354E5	2866.75964
0.44681	1.00266E5	2865.75964
0.44552	1.00178E5	2864.75964
0.44424	1.00091E5	2863.75964
0.44296	1.00003E5	2862.75964
0.44169	99916.03385	2861.75964
0.44042	99829.04725	2860.75964
0.43916	99742.26492	2859.75964
0.43790	99655.68573	2858.75964
0.43664	99569.30858	2857.75964
0.43540	99483.13237	2856.75964
0.43415	99397.15600	2855.75964
0.43291	99311.37838	2854.75964
0.43168	99225.79844	2853.75964
0.43045	99140.41509	2852.75964
0.42923	99055.22728	2851.75964
0.42801	98970.23394	2850.75964
0.42680	98885.43403	2849.75964
0.42559	98800.82650	2848.75964
0.42438	98716.41031	2847.75964
0.42318	98632.18443	2846.75964
0.42199	98548.14785	2845.75964
0.42080	98464.29954	2844.75964
0.41961	98380.63850	2843.75964
0.41843	98297.16371	2842.75964
0.41726	98213.87420	2841.75964
0.41609	98130.76896	2840.75964
0.41492	98047.84702	2839.75964
0.41376	97965.10739	2838.75964
0.41260	97882.54912	2837.75964
0.41144	97800.17123	2836.75964
0.41030	97717.97278	2835.75964
0.40915	97635.95280	2834.75964
0.40801	97554.11036	2833.75964
0.40687	97472.44452	2832.75964
0.40574	97390.95435	2831.75964
0.40462	97309.63892	2830.75964
0.40349	97228.49731	2829.75964
0.40238	97147.52862	2828.75964
0.40126	97066.73193	2827.75964
0.40015	96986.10634	2826.75964
0.39905	96905.65096	2825.75964
0.39794	96825.36490	2824.75964
0.39685	96745.24728	2823.75964
0.39576	96665.29721	2822.75964
0.39467	96585.51384	2821.75964
0.39358	96505.89628	2820.75964
0.39250	96426.44369	2819.75964
0.39142	96347.15520	2818.75964
0.39035	96268.02997	2817.75964
0.38928	96189.06716	2816.75964
0.38822	96110.26592	2815.75964
0.38716	96031.62543	2814.75964
0.38610	95953.14486	2813.75964
0.38505	95874.82338	2812.75964
0.38400	95796.66018	2811.75964
0.38296	95718.65445	2810.75964
0.38192	95640.80538	2809.75964
0.38088	95563.11217	2808.75964
0.37985	95485.57403	2807.75964
0.37882	95408.19017	2806.75964
0.37780	95330.95980	2805.75964
0.37678	95253.88215	2804.75964
0.37576	95176.95643	2803.75964
0.37475	95100.18187	2802.75964
0.37374	95023.55772	2801.75964
0.37273	94947.08321	2800.75964
0.37173	94870.75759	2799.75964
0.37073	94794.58011	2798.75964
0.36973	94718.55001	2797.75964
0.36874	94642.66657	2796.75964
0.36776	94566.92904	2795.75964
0.36677	94491.33669	2794.75964
0.36579	94415.88880	2793.75964
0.36481	94340.58464	2792.75964
0.36384	94265.42350	2791.75964
0.36287	94190.40466	2790.75964
0.36191	94115.52742	2789.75964
0.36094	94040.79107	2788.75964
0.35999	93966.19491	2787.75964
0.35903	93891.73824	2786.75964
0.35808	93817.42039	2785.75964
0.35713	93743.24065	2784.75964
0.35618	93669.19836	2783.75964
0.35524	93595.29282	2782.75964
0.35430	93521.52337	2781.75964
0.35337	93447.88934	2780.75964
0.35244	93374.39006	2779.75964
0.35151	93301.02488	2778.75964
0.35059	93227.79313	2777.75964
0.34966	93154.69416	2776.75964
0.34875	93081.72733	2775.75964
0.34783	93008.89199	2774.75964
0.34692	92936.18751	2773.75964
0.34601	92863.61323	2772.75964
0.34511	92791.16854	2771.75964
0.34421	92718.85281	2770.75964
0.34331	92646.66540	2769.75964
0.34241	92574.60570	2768.75964
0.34152	92502.67309	2767.75964
0.34063	92430.86697	2766.75964
0.33974	92359.18671	2765.75964
0.33886	92287.63172	2764.75964
0.33798	92216.20139	2763.75964
0.33711	92144.89512	2762.75964
0.33623	92073.71233	2761.75964
0.33536	92002.65242	2760.75964
0.33450	91931.71480	2759.75964
0.33363	91860.89890	2758.75964
0.33277	91790.20412	2757.75964
0.33191	91719.62990	2756.75964
0.33106	91649.17566	2755.75964
0.33021	91578.84083	2754.75964
0.32936	91508.62485	2753.75964
0.32851	91438.52716	2752.75964
0.32767	91368.54720	2751.75964
0.32683	91298.68440	2750.75964
0.32599	91228.93823	2749.75964
0.32516	91159.30812	2748.75964
0.32432	91089.79355	2747.75964
0.32350	91020.39395	2746.75964
0.32267	90951.10881	2745.75964
0.32185	90881.93757	2744.75964
0.32103	90812.87971	2743.75964
0.32021	90743.93470	2742.75964
0.31940	90675.10201	2741.75964
0.31858	90606.38113	2740.75964
0.31778	90537.77153	2739.75964
0.31697	90469.27269	2738.75964
0.31617	90400.88411	2737.75964
0.31537	90332.60527	2736.75964
0.31457	90264.43566	2735.75964
0.31377	90196.37479	2734.75964
0.31298	90128.42215	2733.75964
0.31219	90060.57724	2732.75964
0.31140	89992.83957	2731.75964
0.31062	89925.20865	2730.75964
0.30984	89857.68399	2729.75964
0.30906	89790.26510	2728.75964
0.30828	89722.95150	2727.75964
0.30751	89655.74270	2726.75964
0.30674	89588.63824	2725.75964
0.30597	89521.63764	2724.75964
0.30520	89454.74042	2723.75964
0.30444	89387.94611	2722.75964
0.30368	89321.25426	2721.75964
0.30292	89254.66439	2720.75964
0.30217	89188.17605	2719.75964
0.30141	89121.78878	2718.75964
0.30066	89055.50212	2717.75964
0.29992	88989.31563	2716.75964
0.29917	88923.22884	2715.75964
0.29843	88857.24132	2714.75964
0.29769	88791.35261	2713.75964
0.29695	88725.56229	2712.75964
0.29621	88659.86990	2711.75964
0.29548	88594.27502	2710.75964
0.29475	88528.77720	2709.75964
0.29402	88463.37602	2708.75964
0.29329	88398.07105	2707.75964
0.29257	88332.86185	2706.75964
0.29185	88267.74802	2705.75964
0.29113	88202.72911	2704.75964
0.29041	88137.80473	2703.75964
0.28970	88072.97444	2702.75964
0.28899	88008.23784	2701.75964
0.28828	87943.59451	2700.75964
0.28757	87879.04404	2699.75964
0.28687	87814.58603	2698.75964
0.28617	87750.22007	2697.75964
0.28547	87685.94576	2696.75964
0.28477	87621.76270	2695.75964
0.28407	87557.67049	2694.75964
0.28338	87493.66874	2693.75964
0.28269	87429.75706	2692.75964
0.28200	87365.93504	2691.75964
0.28131	87302.20231	2690.75964
0.28063	87238.55848	2689.75964
0.27995	87175.00316	2688.75964
0.27927	87111.53597	2687.75964
0.27859	87048.15653	2686.75964
0.27791	86984.86447	2685.75964
0.27724	86921.65940	2684.75964
0.27657	86858.54097	2683.75964
0.27590	86795.50878	2682.75964
0.27523	86732.56249	2681.75964
0.27457	86669.70171	2680.75964
0.27390	86606.92608	2679.75964
0.27324	86544.23525	2678.75964
0.27259	86481.62885	2677.75964
0.27193	86419.10652	2676.75964
0.27128	86356.66791	2675.75964
0.27062	86294.31266	2674.75964
0.26997	86232.04041	2673.75964
0.26932	86169.85083	2672.75964
0.26868	86107.74356	2671.75964
0.26803	86045.71825	2670.75964
0.26739	85983.77455	2669.75964
0.26675	85921.91214	2668.75964
0.26612	85860.13066	2667.75964
0.26548	85798.42978	2666.75964
0.26485	85736.80916	2665.75964
0.26421	85675.26846	2664.75964
0.26358	85613.80736	2663.75964
0.26296	85552.42552	2662.75964
0.26233	85491.12261	2661.75964
0.26171	85429.89830	2660.75964
0.26108	85368.75228	2659.75964
0.26046	85307.68421	2658.75964
0.25985	85246.69377	2657.75964
0.25923	85185.78064	2656.75964
0.25861	85124.94451	2655.75964
0.25800	85064.18506	2654.75964
0.25739	85003.50197	2653.75964
0.25678	84942.89494	2652.75964
0.25618	84882.36364	2651.75964
0.25557	84821.90777	2650.75964
0.25497	84761.52702	2649.75964
0.25437	84701.22109	2648.75964
0.25377	84640.98967	2647.75964
0.25317	84580.83245	2646.75964
0.25258	84520.74915	2645.75964
0.25198	84460.73945	2644.75964
0.25139	84400.80306	2643.75964
0.25080	84340.93968	2642.75964
0.25021	84281.14903	2641.75964
0.24962	84221.43080	2640.75964
0.24904	84161.78471	2639.75964
0.24846	84102.21046	2638.75964
0.24788	84042.70777	2637.75964
0.24730	83983.27635	2636.75964
0.24672	83923.91592	2635.75964
0.24614	83864.62619	2634.75964
0.24557	83805.40688	2633.75964
0.24500	83746.25771	2632.75964
0.24442	83687.17840	2631.75964
0.24386	83628.16868	2630.75964
0.24329	83569.22827	2629.75964
0.24272	83510.35690	2628.75964
0.24216	83451.55429	2627.75964
0.24160	83392.82017	2626.75964
0.24104	83334.15427	2625.75964
0.24048	83275.55632	2624.75964
0.23992	83217.02607	2623.75964
0.23936	83158.56323	2622.75964
0.23881	83100.16756	2621.75964
0.23826	83041.83877	2620.75964
0.23771	82983.57663	2619.75964
0.23716	82925.38086	2618.75964
0.23661	82867.25120	2617.75964
0.23607	82809.18741	2616.75964
0.23552	82751.18922	2615.75964
0.23498	82693.25638	2614.75964
0.23444	82635.38863	2613.75964
0.23390	82577.58574	2612.75964
0.23336	82519.84744	2611.75964
0.23282	82462.17349	2610.75964
0.23229	82404.56365	2609.75964
0.23176	82347.01765	2608.75964
0.23123	82289.53527	2607.75964
0.23070	82232.11626	2606.75964
0.23017	82174.76037	2605.75964
0.22964	82117.46736	2604.75964
0.22912	82060.23701	2603.75964
0.22859	82003.06905	2602.75964
0.22807	81945.96327	2601.75964
0.22755	81888.91943	2600.75964
0.22703	81831.93728	2599.75964
0.22651	81775.01660	2598.75964
0.22600	81718.15716	2597.75964
0.22548	81661.35872	2596.75964
0.22497	81604.62106	2595.75964
0.22446	81547.94395	2594.75964
0.22395	81491.32715	2593.75964
0.22344	81434.77045	2592.75964
0.22293	81378.27363	2591.75964
0.22242	81321.83645	2590.75964
0.22192	81265.45869	2589.75964
0.22142	81209.14014	2588.75964
0.22092	81152.88057	2587.75964
0.22042	81096.67977	2586.75964
0.21992	81040.53751	2585.75964
0.21942	80984.45359	2584.75964
0.21892	80928.42779	2583.75964
0.21843	80872.45988	2582.75964
0.21794	80816.54967	2581.75964
0.21745	80760.69693	2580.75964
0.21696	80704.90146	2579.75964
0.21647	80649.16305	2578.75964
0.21598	80593.48148	2577.75964
0.21549	80537.85656	2576.75964
0.21501	80482.28807	2575.75964
0.21452	80426.77581	2574.75964
0.21404	80371.31958	2573.75964
0.21356	80315.91917	2572.75964
0.21308	80260.57438	2571.75964
0.21261	80205.28501	2570.75964
0.21213	80150.05086	2569.75964
0.21165	80094.87172	2568.75964
0.21118	80039.74741	2567.75964
0.21071	79984.67773	2566.75964
0.21024	79929.66248	2565.75964
0.20977	79874.70146	2564.75964
0.20930	79819.79448	2563.75964
0.20883	79764.94135	2562.75964
0.20836	79710.14187	2561.75964
0.20790	79655.39587	2560.75964
0.20744	79600.70313	2559.75964
0.20697	79546.06349	2558.75964
0.20651	79491.47674	2557.75964
0.20605	79436.94271	2556.75964
0.20559	79382.46120	2555.75964
0.20514	79328.03203	2554.75964
0.20468	79273.65502	2553.75964
0.20423	79219.32999	2552.75964
0.20377	79165.05674	2551.75964
0.20332	79110.83511	2550.75964
0.20287	79056.66490	2549.75964
0.20242	79002.54595	2548.75964
0.20197	78948.47807	2547.75964
0.20152	78894.46108	2546.75964
0.20108	78840.49481	2545.75964
0.20063	78786.57909	2544.75964
0.20019	78732.71373	2543.75964
0.19975	78678.89857	2542.75964
0.19931	78625.13342	2541.75964
0.19887	78571.41813	2540.75964
0.19843	78517.75251	2539.75964
0.19799	78464.13640	2538.75964
0.19755	78410.56962	2537.75964
0.19712	78357.05202	2536.75964
0.19668	78303.58341	2535.75964
0.19625	78250.16364	2534.75964
0.19582	78196.79253	2533.75964
0.19539	78143.46993	2532.75964
0.19496	78090.19566	2531.75964
0.19453	78036.96957	2530.75964
0.19410	77983.79149	2529.75964
0.19368	77930.66125	2528.75964
0.19325	77877.57871	2527.75964
0.19283	77824.54369	2526.75964
0.19241	77771.55604	2525.75964
0.19198	77718.61560	2524.75964
0.19156	77665.72221	2523.75964
0.19114	77612.87571	2522.75964
0.19073	77560.07595	2521.75964
0.19031	77507.32277	2520.75964
0.18989	77454.61602	2519.75964
0.18948	77401.95554	2518.75964
0.18906	77349.34118	2517.75964
0.18865	77296.77279	2516.75964
0.18824	77244.25021	2515.75964
0.18783	77191.77330	2514.75964
0.18742	77139.34190	2513.75964
0.18701	77086.95586	2512.75964
0.18660	77034.61504	2511.75964
0.18620	76982.31929	2510.75964
0.18579	76930.06846	2509.75964
0.18539	76877.86240	2508.75964
0.18498	76825.70096	2507.75964
0.18458	76773.58402	2506.75964
0.18418	76721.51140	2505.75964
0.18378	76669.48299	2504.75964
0.18338	76617.49862	2503.75964
0.18298	76565.55817	2502.75964
0.18258	76513.66148	2501.75964
0.18219	76461.80842	2500.75964
0.18179	76409.99884	2499.75964
0.18140	76358.23261	2498.75964
0.18101	76306.50959	2497.75964
0.18061	76254.82964	2496.75964
0.18022	76203.19262	2495.75964
0.17983	76151.59840	2494.75964
0.17944	76100.04684	2493.75964
0.17905	76048.53780	2492.75964
0.17867	75997.07115	2491.75964
0.17828	75945.64675	2490.75964
0.17790	75894.26448	2489.75964
0.17751	75842.92420	2488.75964
0.17713	75791.62577	2487.75964
0.17675	75740.36907	2486.75964
0.17637	75689.15396	2485.75964
0.17598	75637.98032	2484.75964
0.17561	75586.84801	2483.75964
0.17523	75535.75690	2482.75964
0.17485	75484.70688	2481.75964
0.17447	75433.69780	2480.75964
0.17410	75382.72954	2479.75964
0.17372	75331.80198	2478.75964
0.17335	75280.91499	2477.75964
0.17298	75230.06844	2476.75964
0.17260	75179.26222	2475.75964
0.17223	75128.49619	2474.75964
0.17186	75077.77023	2473.75964
0.17149	75027.08422	2472.75964
0.17112	74976.43803	2471.75964
0.17076	74925.83156	2470.75964
0.17039	74875.26466	2469.75964
0.17003	74824.73723	2468.75964
0.16966	74774.24914	2467.75964
0.16930	74723.80028	2466.75964
0.16893	74673.39052	2465.75964
0.16857	74623.01975	2464.75964
0.16821	74572.68784	2463.75964
0.16785	74522.39469	2462.75964
0.16749	74472.14018	2461.75964
0.16713	74421.92418	2460.75964
0.16677	74371.74659	2459.75964
0.16642	74321.60728	2458.75964
0.16606	74271.50615	2457.75964
0.16571	74221.44308	2456.75964
0.16535	74171.41796	2455.75964
0.16500	74121.43068	2454.75964
0.16465	74071.48111	2453.75964
0.16429	74021.56916	2452.75964
0.16394	73971.69470	2451.75964
0.16359	73921.85763	2450.75964
0.16324	73872.05785	2449.75964
0.16290	73822.29523	2448.75964
0.16255	73772.56967	2447.75964
0.16220	73722.88106	2446.75964
