Mole fraction of liquid	Heat per mole [J]	Temperature [K]
1.00000	1.34179E5	3162.32433
0.99997	1.34174E5	3162.22870
0.99540	1.33939E5	3161.22870
0.99086	1.33705E5	3160.22870
0.98635	1.33473E5	3159.22870
0.98187	1.33242E5	3158.22870
0.97741	1.33012E5	3157.22870
0.97298	1.32783E5	3156.22870
0.96858	1.32556E5	3155.22870
0.96421	1.32330E5	3154.22870
0.95987	1.32105E5	3153.22870
0.95555	1.31881E5	3152.22870
0.95126	1.31659E5	3151.22870
0.94700	1.31438E5	3150.22870
0.94276	1.31218E5	3149.22870
0.93855	1.30999E5	3148.22870
0.93437	1.30782E5	3147.22870
0.93021	1.30565E5	3146.22870
0.92608	1.30350E5	3145.22870
0.92197	1.30136E5	3144.22870
0.91789	1.29923E5	3143.22870
0.91383	1.29711E5	3142.22870
0.90980	1.29500E5	3141.22870
0.90579	1.29290E5	3140.22870
0.90181	1.29082E5	3139.22870
0.89785	1.28874E5	3138.22870
0.89392	1.28668E5	3137.22870
0.89001	1.28463E5	3136.22870
0.88612	1.28258E5	3135.22870
0.88226	1.28055E5	3134.22870
0.87842	1.27853E5	3133.22870
0.87460	1.27652E5	3132.22870
0.87081	1.27452E5	3131.22870
0.86704	1.27253E5	3130.22870
0.86329	1.27055E5	3129.22870
0.85957	1.26857E5	3128.22870
0.85587	1.26661E5	3127.22870
0.85218	1.26466E5	3126.22870
0.84853	1.26272E5	3125.22870
0.84489	1.26079E5	3124.22870
0.84127	1.25887E5	3123.22870
0.83768	1.25696E5	3122.22870
0.83411	1.25506E5	3121.22870
0.83056	1.25316E5	3120.22870
0.82703	1.25128E5	3119.22870
0.82352	1.24940E5	3118.22870
0.82003	1.24754E5	3117.22870
0.81656	1.24568E5	3116.22870
0.81311	1.24384E5	3115.22870
0.80968	1.24200E5	3114.22870
0.80627	1.24017E5	3113.22870
0.80289	1.23835E5	3112.22870
0.79952	1.23654E5	3111.22870
0.79617	1.23473E5	3110.22870
0.79284	1.23294E5	3109.22870
0.78953	1.23115E5	3108.22870
0.78624	1.22938E5	3107.22870
0.78296	1.22761E5	3106.22870
0.77971	1.22585E5	3105.22870
0.77648	1.22409E5	3104.22870
0.77326	1.22235E5	3103.22870
0.77006	1.22061E5	3102.22870
0.76688	1.21889E5	3101.22870
0.76372	1.21717E5	3100.22870
0.76058	1.21546E5	3099.22870
0.75745	1.21375E5	3098.22870
0.75435	1.21206E5	3097.22870
0.75126	1.21037E5	3096.22870
0.74818	1.20869E5	3095.22870
0.74513	1.20702E5	3094.22870
0.74209	1.20535E5	3093.22870
0.73907	1.20369E5	3092.22870
0.73607	1.20204E5	3091.22870
0.73308	1.20040E5	3090.22870
0.73011	1.19877E5	3089.22870
0.72716	1.19714E5	3088.22870
0.72422	1.19552E5	3087.22870
0.72130	1.19391E5	3086.22870
0.71839	1.19230E5	3085.22870
0.71550	1.19070E5	3084.22870
0.71263	1.18911E5	3083.22870
0.70978	1.18753E5	3082.22870
0.70694	1.18595E5	3081.22870
0.70411	1.18438E5	3080.22870
0.70130	1.18281E5	3079.22870
0.69851	1.18126E5	3078.22870
0.69573	1.17971E5	3077.22870
0.69296	1.17816E5	3076.22870
0.69022	1.17663E5	3075.22870
0.68748	1.17510E5	3074.22870
0.68476	1.17357E5	3073.22870
0.68206	1.17206E5	3072.22870
0.67937	1.17054E5	3071.22870
0.67670	1.16904E5	3070.22870
0.67404	1.16754E5	3069.22870
0.67139	1.16605E5	3068.22870
0.66876	1.16457E5	3067.22870
0.66614	1.16309E5	3066.22870
0.66354	1.16161E5	3065.22870
0.66095	1.16015E5	3064.22870
0.65838	1.15869E5	3063.22870
0.65582	1.15723E5	3062.22870
0.65327	1.15578E5	3061.22870
0.65073	1.15434E5	3060.22870
0.64821	1.15291E5	3059.22870
0.64571	1.15148E5	3058.22870
0.64321	1.15005E5	3057.22870
0.64073	1.14863E5	3056.22870
0.63826	1.14722E5	3055.22870
0.63581	1.14581E5	3054.22870
0.63337	1.14441E5	3053.22870
0.63094	1.14301E5	3052.22870
0.62852	1.14162E5	3051.22870
0.62612	1.14024E5	3050.22870
0.62373	1.13886E5	3049.22870
0.62135	1.13748E5	3048.22870
0.61899	1.13612E5	3047.22870
0.61663	1.13475E5	3046.22870
0.61429	1.13340E5	3045.22870
0.61196	1.13204E5	3044.22870
0.60965	1.13070E5	3043.22870
0.60734	1.12935E5	3042.22870
0.60505	1.12802E5	3041.22870
0.60277	1.12669E5	3040.22870
0.60050	1.12536E5	3039.22870
0.59824	1.12404E5	3038.22870
0.59600	1.12272E5	3037.22870
0.59376	1.12141E5	3036.22870
0.59154	1.12011E5	3035.22870
0.58933	1.11881E5	3034.22870
0.58713	1.11751E5	3033.22870
0.58494	1.11622E5	3032.22870
0.58276	1.11493E5	3031.22870
0.58059	1.11365E5	3030.22870
0.57844	1.11237E5	3029.22870
0.57629	1.11110E5	3028.22870
0.57416	1.10984E5	3027.22870
0.57204	1.10857E5	3026.22870
0.56992	1.10732E5	3025.22870
0.56782	1.10606E5	3024.22870
0.56573	1.10481E5	3023.22870
0.56365	1.10357E5	3022.22870
0.56158	1.10233E5	3021.22870
0.55952	1.10110E5	3020.22870
0.55747	1.09987E5	3019.22870
0.55543	1.09864E5	3018.22870
0.55340	1.09742E5	3017.22870
0.55138	1.09620E5	3016.22870
0.54937	1.09499E5	3015.22870
0.54737	1.09378E5	3014.22870
0.54538	1.09258E5	3013.22870
0.54341	1.09138E5	3012.22870
0.54144	1.09018E5	3011.22870
0.53948	1.08899E5	3010.22870
0.53753	1.08781E5	3009.22870
0.53559	1.08662E5	3008.22870
0.53365	1.08544E5	3007.22870
0.53173	1.08427E5	3006.22870
0.52982	1.08310E5	3005.22870
0.52792	1.08193E5	3004.22870
0.52602	1.08077E5	3003.22870
0.52414	1.07961E5	3002.22870
0.52226	1.07846E5	3001.22870
0.52040	1.07731E5	3000.22870
0.51854	1.07616E5	2999.22870
0.51669	1.07502E5	2998.22870
0.51485	1.07388E5	2997.22870
0.51302	1.07275E5	2996.22870
0.51120	1.07161E5	2995.22870
0.50939	1.07049E5	2994.22870
0.50759	1.06936E5	2993.22870
0.50579	1.06824E5	2992.22870
0.50400	1.06713E5	2991.22870
0.50223	1.06602E5	2990.22870
0.50046	1.06491E5	2989.22870
0.49869	1.06380E5	2988.22870
0.49694	1.06270E5	2987.22870
0.49520	1.06160E5	2986.22870
0.49346	1.06051E5	2985.22870
0.49173	1.05942E5	2984.22870
0.49001	1.05833E5	2983.22870
0.48830	1.05725E5	2982.22870
0.48660	1.05617E5	2981.22870
0.48490	1.05509E5	2980.22870
0.48321	1.05402E5	2979.22870
0.48154	1.05295E5	2978.22870
0.47986	1.05189E5	2977.22870
0.47820	1.05082E5	2976.22870
0.47654	1.04976E5	2975.22870
0.47490	1.04871E5	2974.22870
0.47325	1.04766E5	2973.22870
0.47162	1.04661E5	2972.22870
0.47000	1.04556E5	2971.22870
0.46838	1.04452E5	2970.22870
0.46677	1.04348E5	2969.22870
0.46516	1.04244E5	2968.22870
0.46357	1.04141E5	2967.22870
0.46198	1.04038E5	2966.22870
0.46040	1.03935E5	2965.22870
0.45883	1.03833E5	2964.22870
0.45726	1.03731E5	2963.22870
0.45570	1.03629E5	2962.22870
0.45415	1.03528E5	2961.22870
0.45260	1.03427E5	2960.22870
0.45107	1.03326E5	2959.22870
0.44954	1.03225E5	2958.22870
0.44801	1.03125E5	2957.22870
0.44650	1.03025E5	2956.22870
0.44499	1.02925E5	2955.22870
0.44348	1.02826E5	2954.22870
0.44199	1.02727E5	2953.22870
0.44050	1.02628E5	2952.22870
0.43901	1.02530E5	2951.22870
0.43754	1.02432E5	2950.22870
0.43607	1.02334E5	2949.22870
0.43461	1.02236E5	2948.22870
0.43315	1.02139E5	2947.22870
0.43170	1.02042E5	2946.22870
0.43026	1.01945E5	2945.22870
0.42882	1.01849E5	2944.22870
0.42739	1.01753E5	2943.22870
0.42597	1.01657E5	2942.22870
0.42455	1.01561E5	2941.22870
0.42314	1.01466E5	2940.22870
0.42173	1.01371E5	2939.22870
0.42033	1.01276E5	2938.22870
0.41894	1.01181E5	2937.22870
0.41755	1.01087E5	2936.22870
0.41617	1.00993E5	2935.22870
0.41480	1.00899E5	2934.22870
0.41343	1.00806E5	2933.22870
0.41207	1.00712E5	2932.22870
0.41071	1.00619E5	2931.22870
0.40936	1.00527E5	2930.22870
0.40802	1.00434E5	2929.22870
0.40668	1.00342E5	2928.22870
0.40535	1.00250E5	2927.22870
0.40402	1.00158E5	2926.22870
0.40270	1.00067E5	2925.22870
0.40139	99975.59672	2924.22870
0.40008	99884.60934	2923.22870
0.39877	99793.86585	2922.22870
0.39747	99703.36483	2921.22870
0.39618	99613.10485	2920.22870
0.39489	99523.08450	2919.22870
0.39361	99433.30240	2918.22870
0.39234	99343.75715	2917.22870
0.39107	99254.44738	2916.22870
0.38980	99165.37172	2915.22870
0.38854	99076.52881	2914.22870
0.38729	98987.91731	2913.22870
0.38604	98899.53588	2912.22870
0.38480	98811.38319	2911.22870
0.38356	98723.45792	2910.22870
0.38232	98635.75876	2909.22870
0.38110	98548.28441	2908.22870
0.37988	98461.03358	2907.22870
0.37866	98374.00499	2906.22870
0.37745	98287.19737	2905.22870
0.37624	98200.60944	2904.22870
0.37504	98114.23997	2903.22870
0.37384	98028.08770	2902.22870
0.37265	97942.15139	2901.22870
0.37146	97856.42982	2900.22870
0.37028	97770.92177	2899.22870
0.36910	97685.62602	2898.22870
0.36793	97600.54138	2897.22870
0.36677	97515.66664	2896.22870
0.36560	97431.00063	2895.22870
0.36445	97346.54216	2894.22870
0.36329	97262.29007	2893.22870
0.36215	97178.24319	2892.22870
0.36100	97094.40038	2891.22870
0.35987	97010.76048	2890.22870
0.35873	96927.32236	2889.22870
0.35760	96844.08489	2888.22870
0.35648	96761.04695	2887.22870
0.35536	96678.20742	2886.22870
0.35425	96595.56520	2885.22870
0.35314	96513.11920	2884.22870
0.35203	96430.86831	2883.22870
0.35093	96348.81146	2882.22870
0.34983	96266.94757	2881.22870
0.34874	96185.27557	2880.22870
0.34765	96103.79441	2879.22870
0.34657	96022.50302	2878.22870
0.34549	95941.40037	2877.22870
0.34442	95860.48540	2876.22870
0.34335	95779.75710	2875.22870
0.34228	95699.21443	2874.22870
0.34122	95618.85637	2873.22870
0.34017	95538.68192	2872.22870
0.33911	95458.69007	2871.22870
0.33806	95378.87982	2870.22870
0.33702	95299.25019	2869.22870
0.33598	95219.80018	2868.22870
0.33494	95140.52882	2867.22870
0.33391	95061.43514	2866.22870
0.33289	94982.51817	2865.22870
0.33186	94903.77697	2864.22870
0.33084	94825.21056	2863.22870
0.32983	94746.81802	2862.22870
0.32882	94668.59840	2861.22870
0.32781	94590.55077	2860.22870
0.32681	94512.67421	2859.22870
0.32581	94434.96778	2858.22870
0.32481	94357.43059	2857.22870
0.32382	94280.06172	2856.22870
0.32284	94202.86027	2855.22870
0.32185	94125.82534	2854.22870
0.32087	94048.95606	2853.22870
0.31990	93972.25152	2852.22870
0.31893	93895.71086	2851.22870
0.31796	93819.33320	2850.22870
0.31699	93743.11767	2849.22870
0.31603	93667.06342	2848.22870
0.31508	93591.16960	2847.22870
0.31412	93515.43534	2846.22870
0.31318	93439.85981	2845.22870
0.31223	93364.44218	2844.22870
0.31129	93289.18160	2843.22870
0.31035	93214.07725	2842.22870
0.30942	93139.12831	2841.22870
0.30849	93064.33396	2840.22870
0.30756	92989.69340	2839.22870
0.30664	92915.20581	2838.22870
0.30572	92840.87040	2837.22870
0.30480	92766.68638	2836.22870
0.30389	92692.65294	2835.22870
0.30298	92618.76931	2834.22870
0.30207	92545.03471	2833.22870
0.30117	92471.44836	2832.22870
0.30027	92398.00950	2831.22870
0.29937	92324.71736	2830.22870
0.29848	92251.57117	2829.22870
0.29759	92178.57019	2828.22870
0.29671	92105.71367	2827.22870
0.29583	92033.00086	2826.22870
0.29495	91960.43101	2825.22870
0.29407	91888.00341	2824.22870
0.29320	91815.71730	2823.22870
0.29233	91743.57198	2822.22870
0.29147	91671.56671	2821.22870
0.29061	91599.70079	2820.22870
0.28975	91527.97349	2819.22870
0.28889	91456.38412	2818.22870
0.28804	91384.93196	2817.22870
0.28719	91313.61633	2816.22870
0.28635	91242.43652	2815.22870
0.28550	91171.39185	2814.22870
0.28466	91100.48163	2813.22870
0.28383	91029.70518	2812.22870
0.28300	90959.06182	2811.22870
0.28217	90888.55089	2810.22870
0.28134	90818.17171	2809.22870
0.28051	90747.92363	2808.22870
0.27969	90677.80597	2807.22870
0.27888	90607.81809	2806.22870
0.27806	90537.95934	2805.22870
0.27725	90468.22906	2804.22870
0.27644	90398.62662	2803.22870
0.27564	90329.15137	2802.22870
0.27483	90259.80268	2801.22870
0.27403	90190.57993	2800.22870
0.27324	90121.48247	2799.22870
0.27244	90052.50970	2798.22870
0.27165	89983.66099	2797.22870
0.27086	89914.93572	2796.22870
0.27008	89846.33328	2795.22870
0.26930	89777.85308	2794.22870
0.26852	89709.49449	2793.22870
0.26774	89641.25693	2792.22870
0.26697	89573.13979	2791.22870
0.26620	89505.14249	2790.22870
0.26543	89437.26443	2789.22870
0.26466	89369.50502	2788.22870
0.26390	89301.86370	2787.22870
0.26314	89234.33988	2786.22870
0.26238	89166.93298	2785.22870
0.26163	89099.64243	2784.22870
0.26088	89032.46767	2783.22870
0.26013	88965.40813	2782.22870
0.25938	88898.46325	2781.22870
0.25864	88831.63248	2780.22870
0.25790	88764.91526	2779.22870
0.25716	88698.31104	2778.22870
0.25642	88631.81927	2777.22870
0.25569	88565.43942	2776.22870
0.25496	88499.17093	2775.22870
0.25423	88433.01328	2774.22870
0.25351	88366.96592	2773.22870
0.25279	88301.02834	2772.22870
0.25207	88235.20000	2771.22870
0.25135	88169.48037	2770.22870
0.25063	88103.86895	2769.22870
0.24992	88038.36520	2768.22870
0.24921	87972.96862	2767.22870
0.24851	87907.67869	2766.22870
0.24780	87842.49490	2765.22870
0.24710	87777.41676	2764.22870
0.24640	87712.44376	2763.22870
0.24570	87647.57539	2762.22870
0.24501	87582.81117	2761.22870
0.24431	87518.15060	2760.22870
0.24362	87453.59319	2759.22870
0.24294	87389.13845	2758.22870
0.24225	87324.78590	2757.22870
0.24157	87260.53506	2756.22870
0.24089	87196.38544	2755.22870
0.24021	87132.33658	2754.22870
0.23953	87068.38800	2753.22870
0.23886	87004.53923	2752.22870
0.23819	86940.78980	2751.22870
0.23752	86877.13926	2750.22870
0.23685	86813.58712	2749.22870
0.23619	86750.13295	2748.22870
0.23553	86686.77628	2747.22870
0.23487	86623.51666	2746.22870
0.23421	86560.35364	2745.22870
0.23356	86497.28676	2744.22870
0.23290	86434.31559	2743.22870
0.23225	86371.43969	2742.22870
0.23160	86308.65860	2741.22870
0.23096	86245.97190	2740.22870
0.23031	86183.37915	2739.22870
0.22967	86120.87992	2738.22870
0.22903	86058.47377	2737.22870
0.22840	85996.16028	2736.22870
0.22776	85933.93903	2735.22870
0.22713	85871.80959	2734.22870
0.22650	85809.77154	2733.22870
0.22587	85747.82447	2732.22870
0.22524	85685.96796	2731.22870
0.22462	85624.20160	2730.22870
0.22399	85562.52497	2729.22870
0.22337	85500.93768	2728.22870
0.22276	85439.43930	2727.22870
0.22214	85378.02945	2726.22870
0.22153	85316.70773	2725.22870
0.22091	85255.47372	2724.22870
0.22030	85194.32704	2723.22870
0.21970	85133.26729	2722.22870
0.21909	85072.29409	2721.22870
0.21849	85011.40703	2720.22870
0.21788	84950.60575	2719.22870
0.21728	84889.88984	2718.22870
0.21669	84829.25893	2717.22870
0.21609	84768.71264	2716.22870
0.21550	84708.25059	2715.22870
0.21490	84647.87240	2714.22870
0.21431	84587.57771	2713.22870
0.21373	84527.36613	2712.22870
0.21314	84467.23730	2711.22870
0.21256	84407.19086	2710.22870
0.21197	84347.22643	2709.22870
0.21139	84287.34365	2708.22870
0.21081	84227.54217	2707.22870
0.21024	84167.82162	2706.22870
0.20966	84108.18164	2705.22870
0.20909	84048.62189	2704.22870
0.20852	83989.14201	2703.22870
0.20795	83929.74164	2702.22870
0.20738	83870.42045	2701.22870
0.20682	83811.17808	2700.22870
0.20625	83752.01418	2699.22870
0.20569	83692.92842	2698.22870
0.20513	83633.92045	2697.22870
0.20457	83574.98993	2696.22870
0.20402	83516.13654	2695.22870
0.20346	83457.35992	2694.22870
0.20291	83398.65975	2693.22870
0.20236	83340.03570	2692.22870
0.20181	83281.48744	2691.22870
0.20126	83223.01463	2690.22870
0.20072	83164.61696	2689.22870
0.20017	83106.29410	2688.22870
0.19963	83048.04572	2687.22870
0.19909	82989.87151	2686.22870
0.19855	82931.77115	2685.22870
0.19801	82873.74432	2684.22870
0.19748	82815.79071	2683.22870
0.19694	82757.90999	2682.22870
0.19641	82700.10187	2681.22870
0.19588	82642.36603	2680.22870
0.19535	82584.70216	2679.22870
0.19483	82527.10996	2678.22870
0.19430	82469.58912	2677.22870
0.19378	82412.13934	2676.22870
0.19325	82354.76032	2675.22870
0.19273	82297.45175	2674.22870
0.19221	82240.21334	2673.22870
0.19170	82183.04480	2672.22870
0.19118	82125.94582	2671.22870
0.19067	82068.91612	2670.22870
0.19016	82011.95540	2669.22870
0.18964	81955.06338	2668.22870
0.18914	81898.23976	2667.22870
0.18863	81841.48426	2666.22870
0.18812	81784.79660	2665.22870
0.18762	81728.17648	2664.22870
0.18711	81671.62364	2663.22870
0.18661	81615.13778	2662.22870
0.18611	81558.71863	2661.22870
0.18562	81502.36591	2660.22870
0.18512	81446.07935	2659.22870
0.18462	81389.85867	2658.22870
0.18413	81333.70359	2657.22870
0.18364	81277.61386	2656.22870
0.18315	81221.58919	2655.22870
0.18266	81165.62932	2654.22870
0.18217	81109.73398	2653.22870
0.18168	81053.90291	2652.22870
0.18120	80998.13584	2651.22870
0.18072	80942.43252	2650.22870
0.18023	80886.79267	2649.22870
0.17975	80831.21603	2648.22870
0.17927	80775.70236	2647.22870
0.17880	80720.25140	2646.22870
0.17832	80664.86288	2645.22870
0.17785	80609.53656	2644.22870
0.17737	80554.27217	2643.22870
0.17690	80499.06948	2642.22870
0.17643	80443.92822	2641.22870
0.17596	80388.84816	2640.22870
0.17549	80333.82904	2639.22870
0.17503	80278.87062	2638.22870
0.17456	80223.97265	2637.22870
0.17410	80169.13489	2636.22870
0.17364	80114.35709	2635.22870
0.17318	80059.63903	2634.22870
0.17272	80004.98045	2633.22870
0.17226	79950.38111	2632.22870
0.17180	79895.84079	2631.22870
0.17135	79841.35925	2630.22870
0.17090	79786.93625	2629.22870
0.17044	79732.57155	2628.22870
0.16999	79678.26493	2627.22870
0.16954	79624.01616	2626.22870
0.16909	79569.82500	2625.22870
0.16865	79515.69123	2624.22870
0.16820	79461.61462	2623.22870
0.16776	79407.59495	2622.22870
0.16731	79353.63198	2621.22870
0.16687	79299.72551	2620.22870
0.16643	79245.87529	2619.22870
0.16599	79192.08112	2618.22870
0.16555	79138.34278	2617.22870
0.16511	79084.66003	2616.22870
0.16468	79031.03268	2615.22870
0.16424	78977.46049	2614.22870
0.16381	78923.94327	2613.22870
0.16338	78870.48078	2612.22870
0.16295	78817.07282	2611.22870
0.16252	78763.71917	2610.22870
0.16209	78710.41963	2609.22870
0.16166	78657.17399	2608.22870
0.16124	78603.98203	2607.22870
0.16081	78550.84356	2606.22870
0.16039	78497.75835	2605.22870
0.15997	78444.72621	2604.22870
0.15955	78391.74694	2603.22870
0.15913	78338.82033	2602.22870
0.15871	78285.94617	2601.22870
0.15829	78233.12427	2600.22870
0.15788	78180.35443	2599.22870
0.15746	78127.63644	2598.22870
0.15705	78074.97012	2597.22870
0.15663	78022.35526	2596.22870
0.15622	77969.79166	2595.22870
0.15581	77917.27914	2594.22870
0.15540	77864.81749	2593.22870
0.15500	77812.40653	2592.22870
0.15459	77760.04607	2591.22870
0.15418	77707.73590	2590.22870
0.15378	77655.47585	2589.22870
0.15337	77603.26572	2588.22870
0.15297	77551.10533	2587.22870
0.15257	77498.99448	2586.22870
0.15217	77446.93300	2585.22870
0.15177	77394.92070	2584.22870
0.15137	77342.95739	2583.22870
0.15098	77291.04289	2582.22870
0.15058	77239.17702	2581.22870
0.15019	77187.35959	2580.22870
0.14979	77135.59043	2579.22870
0.14940	77083.86936	2578.22870
0.14901	77032.19620	2577.22870
0.14862	76980.57077	2576.22870
0.14823	76928.99289	2575.22870
0.14784	76877.46239	2574.22870
0.14745	76825.97910	2573.22870
0.14707	76774.54283	2572.22870
0.14668	76723.15343	2571.22870
0.14630	76671.81070	2570.22870
0.14592	76620.51449	2569.22870
0.14553	76569.26462	2568.22870
0.14515	76518.06093	2567.22870
0.14477	76466.90324	2566.22870
0.14439	76415.79138	2565.22870
0.14402	76364.72520	2564.22870
0.14364	76313.70452	2563.22870
0.14326	76262.72918	2562.22870
0.14289	76211.79901	2561.22870
0.14251	76160.91385	2560.22870
0.14214	76110.07354	2559.22870
0.14177	76059.27791	2558.22870
0.14140	76008.52680	2557.22870
0.14103	75957.82006	2556.22870
0.14066	75907.15753	2555.22870
0.14029	75856.53904	2554.22870
0.13992	75805.96443	2553.22870
0.13956	75755.43356	2552.22870
0.13919	75704.94626	2551.22870
0.13883	75654.50238	2550.22870
0.13847	75604.10176	2549.22870
0.13810	75553.74425	2548.22870
0.13774	75503.42970	2547.22870
0.13738	75453.15795	2546.22870
0.13702	75402.92885	2545.22870
0.13666	75352.74225	2544.22870
0.13631	75302.59801	2543.22870
0.13595	75252.49596	2542.22870
0.13559	75202.43597	2541.22870
0.13524	75152.41788	2540.22870
0.13488	75102.44155	2539.22870
0.13453	75052.50683	2538.22870
0.13418	75002.61357	2537.22870
0.13383	74952.76163	2536.22870
0.13348	74902.95087	2535.22870
0.13313	74853.18115	2534.22870
0.13278	74803.45231	2533.22870
0.13243	74753.76421	2532.22870
0.13209	74704.11673	2531.22870
0.13174	74654.50970	2530.22870
0.13139	74604.94301	2529.22870
0.13105	74555.41649	2528.22870
0.13071	74505.93003	2527.22870
0.13036	74456.48347	2526.22870
0.13002	74407.07668	2525.22870
0.12968	74357.70953	2524.22870
0.12934	74308.38187	2523.22870
0.12900	74259.09358	2522.22870
0.12867	74209.84452	2521.22870
0.12833	74160.63455	2520.22870
0.12799	74111.46354	2519.22870
0.12766	74062.33136	2518.22870
0.12732	74013.23787	2517.22870
0.12699	73964.18295	2516.22870
0.12665	73915.16647	2515.22870
0.12632	73866.18829	2514.22870
0.12599	73817.24828	2513.22870
0.12566	73768.34632	2512.22870
0.12533	73719.48228	2511.22870
0.12500	73670.65602	2510.22870
0.12467	73621.86743	2509.22870
0.12434	73573.11637	2508.22870
0.12402	73524.40273	2507.22870
0.12369	73475.72637	2506.22870
