Mole fraction of liquid	Heat per mole [J]	Temperature [K]
1.00000	1.34435E5	3164.71261
0.99997	1.34429E5	3164.61699
0.99540	1.34195E5	3163.61699
0.99085	1.33963E5	3162.61699
0.98633	1.33732E5	3161.61699
0.98185	1.33502E5	3160.61699
0.97739	1.33273E5	3159.61699
0.97295	1.33045E5	3158.61699
0.96855	1.32819E5	3157.61699
0.96417	1.32594E5	3156.61699
0.95983	1.32371E5	3155.61699
0.95551	1.32148E5	3154.61699
0.95121	1.31927E5	3153.61699
0.94695	1.31707E5	3152.61699
0.94271	1.31488E5	3151.61699
0.93849	1.31270E5	3150.61699
0.93431	1.31054E5	3149.61699
0.93015	1.30839E5	3148.61699
0.92601	1.30624E5	3147.61699
0.92191	1.30411E5	3146.61699
0.91782	1.30199E5	3145.61699
0.91376	1.29989E5	3144.61699
0.90973	1.29779E5	3143.61699
0.90572	1.29570E5	3142.61699
0.90174	1.29363E5	3141.61699
0.89778	1.29157E5	3140.61699
0.89385	1.28951E5	3139.61699
0.88994	1.28747E5	3138.61699
0.88605	1.28544E5	3137.61699
0.88219	1.28342E5	3136.61699
0.87835	1.28141E5	3135.61699
0.87454	1.27941E5	3134.61699
0.87074	1.27742E5	3133.61699
0.86697	1.27544E5	3132.61699
0.86323	1.27347E5	3131.61699
0.85950	1.27151E5	3130.61699
0.85580	1.26956E5	3129.61699
0.85212	1.26762E5	3128.61699
0.84847	1.26569E5	3127.61699
0.84483	1.26377E5	3126.61699
0.84122	1.26186E5	3125.61699
0.83763	1.25996E5	3124.61699
0.83406	1.25807E5	3123.61699
0.83051	1.25618E5	3122.61699
0.82698	1.25431E5	3121.61699
0.82347	1.25245E5	3120.61699
0.81999	1.25059E5	3119.61699
0.81652	1.24875E5	3118.61699
0.81307	1.24691E5	3117.61699
0.80965	1.24508E5	3116.61699
0.80624	1.24327E5	3115.61699
0.80286	1.24146E5	3114.61699
0.79950	1.23966E5	3113.61699
0.79615	1.23786E5	3112.61699
0.79282	1.23608E5	3111.61699
0.78952	1.23431E5	3110.61699
0.78623	1.23254E5	3109.61699
0.78296	1.23078E5	3108.61699
0.77971	1.22903E5	3107.61699
0.77648	1.22729E5	3106.61699
0.77327	1.22556E5	3105.61699
0.77008	1.22383E5	3104.61699
0.76690	1.22211E5	3103.61699
0.76375	1.22041E5	3102.61699
0.76061	1.21870E5	3101.61699
0.75749	1.21701E5	3100.61699
0.75439	1.21533E5	3099.61699
0.75130	1.21365E5	3098.61699
0.74823	1.21198E5	3097.61699
0.74518	1.21032E5	3096.61699
0.74215	1.20866E5	3095.61699
0.73914	1.20702E5	3094.61699
0.73614	1.20538E5	3093.61699
0.73316	1.20374E5	3092.61699
0.73019	1.20212E5	3091.61699
0.72724	1.20050E5	3090.61699
0.72431	1.19889E5	3089.61699
0.72140	1.19729E5	3088.61699
0.71850	1.19569E5	3087.61699
0.71562	1.19410E5	3086.61699
0.71275	1.19252E5	3085.61699
0.70990	1.19095E5	3084.61699
0.70707	1.18938E5	3083.61699
0.70425	1.18782E5	3082.61699
0.70144	1.18627E5	3081.61699
0.69866	1.18472E5	3080.61699
0.69588	1.18318E5	3079.61699
0.69313	1.18165E5	3078.61699
0.69039	1.18012E5	3077.61699
0.68766	1.17860E5	3076.61699
0.68495	1.17708E5	3075.61699
0.68225	1.17558E5	3074.61699
0.67957	1.17408E5	3073.61699
0.67690	1.17258E5	3072.61699
0.67425	1.17109E5	3071.61699
0.67161	1.16961E5	3070.61699
0.66899	1.16814E5	3069.61699
0.66638	1.16667E5	3068.61699
0.66378	1.16520E5	3067.61699
0.66120	1.16375E5	3066.61699
0.65863	1.16230E5	3065.61699
0.65608	1.16085E5	3064.61699
0.65354	1.15941E5	3063.61699
0.65101	1.15798E5	3062.61699
0.64850	1.15655E5	3061.61699
0.64600	1.15513E5	3060.61699
0.64351	1.15371E5	3059.61699
0.64104	1.15231E5	3058.61699
0.63858	1.15090E5	3057.61699
0.63613	1.14950E5	3056.61699
0.63370	1.14811E5	3055.61699
0.63128	1.14672E5	3054.61699
0.62887	1.14534E5	3053.61699
0.62647	1.14397E5	3052.61699
0.62409	1.14260E5	3051.61699
0.62172	1.14123E5	3050.61699
0.61936	1.13987E5	3049.61699
0.61702	1.13852E5	3048.61699
0.61468	1.13717E5	3047.61699
0.61236	1.13582E5	3046.61699
0.61005	1.13449E5	3045.61699
0.60776	1.13315E5	3044.61699
0.60547	1.13183E5	3043.61699
0.60320	1.13050E5	3042.61699
0.60094	1.12919E5	3041.61699
0.59869	1.12787E5	3040.61699
0.59645	1.12657E5	3039.61699
0.59423	1.12526E5	3038.61699
0.59201	1.12397E5	3037.61699
0.58981	1.12267E5	3036.61699
0.58762	1.12139E5	3035.61699
0.58544	1.12010E5	3034.61699
0.58327	1.11883E5	3033.61699
0.58111	1.11755E5	3032.61699
0.57896	1.11628E5	3031.61699
0.57682	1.11502E5	3030.61699
0.57470	1.11376E5	3029.61699
0.57258	1.11251E5	3028.61699
0.57048	1.11126E5	3027.61699
0.56839	1.11001E5	3026.61699
0.56630	1.10877E5	3025.61699
0.56423	1.10754E5	3024.61699
0.56217	1.10631E5	3023.61699
0.56012	1.10508E5	3022.61699
0.55808	1.10386E5	3021.61699
0.55605	1.10264E5	3020.61699
0.55403	1.10143E5	3019.61699
0.55202	1.10022E5	3018.61699
0.55002	1.09901E5	3017.61699
0.54803	1.09781E5	3016.61699
0.54604	1.09662E5	3015.61699
0.54407	1.09542E5	3014.61699
0.54211	1.09424E5	3013.61699
0.54016	1.09305E5	3012.61699
0.53822	1.09187E5	3011.61699
0.53629	1.09070E5	3010.61699
0.53437	1.08953E5	3009.61699
0.53245	1.08836E5	3008.61699
0.53055	1.08720E5	3007.61699
0.52866	1.08604E5	3006.61699
0.52677	1.08488E5	3005.61699
0.52489	1.08373E5	3004.61699
0.52303	1.08258E5	3003.61699
0.52117	1.08144E5	3002.61699
0.51932	1.08030E5	3001.61699
0.51748	1.07917E5	3000.61699
0.51565	1.07804E5	2999.61699
0.51383	1.07691E5	2998.61699
0.51202	1.07578E5	2997.61699
0.51021	1.07466E5	2996.61699
0.50842	1.07355E5	2995.61699
0.50663	1.07244E5	2994.61699
0.50486	1.07133E5	2993.61699
0.50309	1.07022E5	2992.61699
0.50133	1.06912E5	2991.61699
0.49957	1.06802E5	2990.61699
0.49783	1.06693E5	2989.61699
0.49609	1.06584E5	2988.61699
0.49437	1.06475E5	2987.61699
0.49265	1.06367E5	2986.61699
0.49094	1.06259E5	2985.61699
0.48923	1.06151E5	2984.61699
0.48754	1.06044E5	2983.61699
0.48585	1.05937E5	2982.61699
0.48417	1.05830E5	2981.61699
0.48250	1.05724E5	2980.61699
0.48084	1.05618E5	2979.61699
0.47918	1.05512E5	2978.61699
0.47754	1.05407E5	2977.61699
0.47590	1.05302E5	2976.61699
0.47427	1.05197E5	2975.61699
0.47264	1.05093E5	2974.61699
0.47102	1.04989E5	2973.61699
0.46942	1.04885E5	2972.61699
0.46781	1.04782E5	2971.61699
0.46622	1.04679E5	2970.61699
0.46463	1.04576E5	2969.61699
0.46305	1.04474E5	2968.61699
0.46148	1.04372E5	2967.61699
0.45992	1.04270E5	2966.61699
0.45836	1.04169E5	2965.61699
0.45681	1.04067E5	2964.61699
0.45527	1.03967E5	2963.61699
0.45373	1.03866E5	2962.61699
0.45220	1.03766E5	2961.61699
0.45068	1.03666E5	2960.61699
0.44916	1.03566E5	2959.61699
0.44766	1.03467E5	2958.61699
0.44615	1.03368E5	2957.61699
0.44466	1.03269E5	2956.61699
0.44317	1.03171E5	2955.61699
0.44169	1.03073E5	2954.61699
0.44022	1.02975E5	2953.61699
0.43875	1.02877E5	2952.61699
0.43729	1.02780E5	2951.61699
0.43584	1.02683E5	2950.61699
0.43439	1.02586E5	2949.61699
0.43295	1.02490E5	2948.61699
0.43151	1.02393E5	2947.61699
0.43008	1.02297E5	2946.61699
0.42866	1.02202E5	2945.61699
0.42725	1.02106E5	2944.61699
0.42584	1.02011E5	2943.61699
0.42444	1.01916E5	2942.61699
0.42304	1.01822E5	2941.61699
0.42165	1.01728E5	2940.61699
0.42026	1.01634E5	2939.61699
0.41889	1.01540E5	2938.61699
0.41752	1.01446E5	2937.61699
0.41615	1.01353E5	2936.61699
0.41479	1.01260E5	2935.61699
0.41344	1.01167E5	2934.61699
0.41209	1.01075E5	2933.61699
0.41075	1.00982E5	2932.61699
0.40941	1.00890E5	2931.61699
0.40808	1.00799E5	2930.61699
0.40676	1.00707E5	2929.61699
0.40544	1.00616E5	2928.61699
0.40413	1.00525E5	2927.61699
0.40282	1.00434E5	2926.61699
0.40152	1.00344E5	2925.61699
0.40022	1.00253E5	2924.61699
0.39893	1.00163E5	2923.61699
0.39765	1.00074E5	2922.61699
0.39637	99984.06703	2921.61699
0.39510	99894.74416	2920.61699
0.39383	99805.65525	2919.61699
0.39257	99716.79895	2918.61699
0.39131	99628.17388	2917.61699
0.39006	99539.77871	2916.61699
0.38882	99451.61209	2915.61699
0.38758	99363.67270	2914.61699
0.38634	99275.95921	2913.61699
0.38511	99188.47033	2912.61699
0.38389	99101.20474	2911.61699
0.38267	99014.16116	2910.61699
0.38145	98927.33831	2909.61699
0.38024	98840.73490	2908.61699
0.37904	98754.34969	2907.61699
0.37784	98668.18142	2906.61699
0.37665	98582.22883	2905.61699
0.37546	98496.49070	2904.61699
0.37428	98410.96580	2903.61699
0.37310	98325.65290	2902.61699
0.37192	98240.55080	2901.61699
0.37076	98155.65830	2900.61699
0.36959	98070.97420	2899.61699
0.36843	97986.49731	2898.61699
0.36728	97902.22647	2897.61699
0.36613	97818.16050	2896.61699
0.36499	97734.29824	2895.61699
0.36385	97650.63855	2894.61699
0.36271	97567.18027	2893.61699
0.36158	97483.92227	2892.61699
0.36046	97400.86343	2891.61699
0.35934	97318.00262	2890.61699
0.35822	97235.33873	2889.61699
0.35711	97152.87067	2888.61699
0.35600	97070.59732	2887.61699
0.35490	96988.51760	2886.61699
0.35380	96906.63044	2885.61699
0.35271	96824.93476	2884.61699
0.35162	96743.42948	2883.61699
0.35054	96662.11356	2882.61699
0.34946	96580.98594	2881.61699
0.34838	96500.04557	2880.61699
0.34731	96419.29142	2879.61699
0.34625	96338.72247	2878.61699
0.34518	96258.33767	2877.61699
0.34413	96178.13603	2876.61699
0.34307	96098.11653	2875.61699
0.34202	96018.27817	2874.61699
0.34098	95938.61995	2873.61699
0.33994	95859.14088	2872.61699
0.33890	95779.83999	2871.61699
0.33787	95700.71630	2870.61699
0.33684	95621.76885	2869.61699
0.33582	95542.99666	2868.61699
0.33480	95464.39878	2867.61699
0.33378	95385.97427	2866.61699
0.33277	95307.72218	2865.61699
0.33177	95229.64159	2864.61699
0.33076	95151.73155	2863.61699
0.32976	95073.99114	2862.61699
0.32877	94996.41946	2861.61699
0.32778	94919.01558	2860.61699
0.32679	94841.77861	2859.61699
0.32581	94764.70764	2858.61699
0.32483	94687.80178	2857.61699
0.32385	94611.06015	2856.61699
0.32288	94534.48186	2855.61699
0.32191	94458.06605	2854.61699
0.32095	94381.81184	2853.61699
0.31999	94305.71837	2852.61699
0.31903	94229.78478	2851.61699
0.31808	94154.01022	2850.61699
0.31713	94078.39385	2849.61699
0.31618	94002.93482	2848.61699
0.31524	93927.63231	2847.61699
0.31430	93852.48548	2846.61699
0.31337	93777.49350	2845.61699
0.31244	93702.65557	2844.61699
0.31151	93627.97086	2843.61699
0.31059	93553.43858	2842.61699
0.30967	93479.05791	2841.61699
0.30875	93404.82807	2840.61699
0.30784	93330.74825	2839.61699
0.30693	93256.81769	2838.61699
0.30603	93183.03558	2837.61699
0.30513	93109.40117	2836.61699
0.30423	93035.91367	2835.61699
0.30333	92962.57232	2834.61699
0.30244	92889.37637	2833.61699
0.30155	92816.32505	2832.61699
0.30067	92743.41762	2831.61699
0.29979	92670.65332	2830.61699
0.29891	92598.03143	2829.61699
0.29803	92525.55119	2828.61699
0.29716	92453.21189	2827.61699
0.29629	92381.01279	2826.61699
0.29543	92308.95317	2825.61699
0.29457	92237.03232	2824.61699
0.29371	92165.24952	2823.61699
0.29286	92093.60406	2822.61699
0.29201	92022.09525	2821.61699
0.29116	91950.72238	2820.61699
0.29031	91879.48475	2819.61699
0.28947	91808.38169	2818.61699
0.28863	91737.41249	2817.61699
0.28780	91666.57649	2816.61699
0.28696	91595.87300	2815.61699
0.28613	91525.30136	2814.61699
0.28531	91454.86089	2813.61699
0.28449	91384.55093	2812.61699
0.28367	91314.37082	2811.61699
0.28285	91244.31991	2810.61699
0.28204	91174.39754	2809.61699
0.28122	91104.60307	2808.61699
0.28042	91034.93586	2807.61699
0.27961	90965.39526	2806.61699
0.27881	90895.98064	2805.61699
0.27801	90826.69138	2804.61699
0.27722	90757.52684	2803.61699
0.27642	90688.48640	2802.61699
0.27563	90619.56945	2801.61699
0.27485	90550.77536	2800.61699
0.27406	90482.10353	2799.61699
0.27328	90413.55335	2798.61699
0.27250	90345.12422	2797.61699
0.27173	90276.81553	2796.61699
0.27096	90208.62670	2795.61699
0.27019	90140.55712	2794.61699
0.26942	90072.60622	2793.61699
0.26865	90004.77340	2792.61699
0.26789	89937.05809	2791.61699
0.26713	89869.45970	2790.61699
0.26638	89801.97768	2789.61699
0.26563	89734.61143	2788.61699
0.26488	89667.36041	2787.61699
0.26413	89600.22403	2786.61699
0.26338	89533.20176	2785.61699
0.26264	89466.29302	2784.61699
0.26190	89399.49727	2783.61699
0.26116	89332.81396	2782.61699
0.26043	89266.24254	2781.61699
0.25970	89199.78246	2780.61699
0.25897	89133.43320	2779.61699
0.25824	89067.19421	2778.61699
0.25752	89001.06497	2777.61699
0.25680	88935.04494	2776.61699
0.25608	88869.13359	2775.61699
0.25537	88803.33041	2774.61699
0.25465	88737.63487	2773.61699
0.25394	88672.04646	2772.61699
0.25323	88606.56466	2771.61699
0.25253	88541.18898	2770.61699
0.25182	88475.91889	2769.61699
0.25112	88410.75389	2768.61699
0.25042	88345.69349	2767.61699
0.24973	88280.73718	2766.61699
0.24904	88215.88448	2765.61699
0.24834	88151.13488	2764.61699
0.24766	88086.48791	2763.61699
0.24697	88021.94307	2762.61699
0.24629	87957.49989	2761.61699
0.24561	87893.15788	2760.61699
0.24493	87828.91657	2759.61699
0.24425	87764.77548	2758.61699
0.24358	87700.73414	2757.61699
0.24290	87636.79208	2756.61699
0.24224	87572.94884	2755.61699
0.24157	87509.20396	2754.61699
0.24090	87445.55697	2753.61699
0.24024	87382.00742	2752.61699
0.23958	87318.55485	2751.61699
0.23892	87255.19882	2750.61699
0.23827	87191.93887	2749.61699
0.23761	87128.77455	2748.61699
0.23696	87065.70543	2747.61699
0.23631	87002.73106	2746.61699
0.23567	86939.85101	2745.61699
0.23502	86877.06483	2744.61699
0.23438	86814.37210	2743.61699
0.23374	86751.77239	2742.61699
0.23310	86689.26526	2741.61699
0.23247	86626.85029	2740.61699
0.23184	86564.52706	2739.61699
0.23120	86502.29515	2738.61699
0.23058	86440.15414	2737.61699
0.22995	86378.10362	2736.61699
0.22932	86316.14317	2735.61699
0.22870	86254.27238	2734.61699
0.22808	86192.49084	2733.61699
0.22746	86130.79815	2732.61699
0.22685	86069.19391	2731.61699
0.22623	86007.67771	2730.61699
0.22562	85946.24916	2729.61699
0.22501	85884.90785	2728.61699
0.22440	85823.65340	2727.61699
0.22380	85762.48542	2726.61699
0.22319	85701.40350	2725.61699
0.22259	85640.40728	2724.61699
0.22199	85579.49635	2723.61699
0.22139	85518.67035	2722.61699
0.22080	85457.92889	2721.61699
0.22020	85397.27159	2720.61699
0.21961	85336.69807	2719.61699
0.21902	85276.20797	2718.61699
0.21843	85215.80091	2717.61699
0.21785	85155.47652	2716.61699
0.21726	85095.23443	2715.61699
0.21668	85035.07428	2714.61699
0.21610	84974.99571	2713.61699
0.21552	84914.99835	2712.61699
0.21494	84855.08185	2711.61699
0.21437	84795.24585	2710.61699
0.21380	84735.49000	2709.61699
0.21323	84675.81394	2708.61699
0.21266	84616.21732	2707.61699
0.21209	84556.69979	2706.61699
0.21153	84497.26101	2705.61699
0.21096	84437.90063	2704.61699
0.21040	84378.61832	2703.61699
0.20984	84319.41372	2702.61699
0.20928	84260.28650	2701.61699
0.20873	84201.23632	2700.61699
0.20817	84142.26286	2699.61699
0.20762	84083.36577	2698.61699
0.20707	84024.54473	2697.61699
0.20652	83965.79940	2696.61699
0.20597	83907.12946	2695.61699
0.20543	83848.53458	2694.61699
0.20489	83790.01445	2693.61699
0.20434	83731.56873	2692.61699
0.20380	83673.19711	2691.61699
0.20327	83614.89927	2690.61699
0.20273	83556.67490	2689.61699
0.20219	83498.52367	2688.61699
0.20166	83440.44528	2687.61699
0.20113	83382.43942	2686.61699
0.20060	83324.50577	2685.61699
0.20007	83266.64404	2684.61699
0.19955	83208.85391	2683.61699
0.19902	83151.13507	2682.61699
0.19850	83093.48724	2681.61699
0.19798	83035.91010	2680.61699
0.19746	82978.40336	2679.61699
0.19694	82920.96672	2678.61699
0.19642	82863.59989	2677.61699
0.19591	82806.30257	2676.61699
0.19539	82749.07447	2675.61699
0.19488	82691.91529	2674.61699
0.19437	82634.82476	2673.61699
0.19387	82577.80258	2672.61699
0.19336	82520.84846	2671.61699
0.19285	82463.96213	2670.61699
0.19235	82407.14330	2669.61699
0.19185	82350.39168	2668.61699
0.19135	82293.70701	2667.61699
0.19085	82237.08900	2666.61699
0.19035	82180.53737	2665.61699
0.18986	82124.05186	2664.61699
0.18936	82067.63218	2663.61699
0.18887	82011.27806	2662.61699
0.18838	81954.98924	2661.61699
0.18789	81898.76545	2660.61699
0.18740	81842.60642	2659.61699
0.18691	81786.51188	2658.61699
0.18643	81730.48157	2657.61699
0.18594	81674.51522	2656.61699
0.18546	81618.61258	2655.61699
0.18498	81562.77338	2654.61699
0.18450	81506.99737	2653.61699
0.18402	81451.28429	2652.61699
0.18355	81395.63388	2651.61699
0.18307	81340.04589	2650.61699
0.18260	81284.52006	2649.61699
0.18213	81229.05615	2648.61699
0.18166	81173.65390	2647.61699
0.18119	81118.31306	2646.61699
0.18072	81063.03340	2645.61699
0.18025	81007.81465	2644.61699
0.17979	80952.65658	2643.61699
0.17933	80897.55894	2642.61699
0.17886	80842.52150	2641.61699
0.17840	80787.54400	2640.61699
0.17794	80732.62621	2639.61699
0.17749	80677.76790	2638.61699
0.17703	80622.96882	2637.61699
0.17657	80568.22874	2636.61699
0.17612	80513.54743	2635.61699
0.17567	80458.92464	2634.61699
0.17522	80404.36016	2633.61699
0.17477	80349.85374	2632.61699
0.17432	80295.40517	2631.61699
0.17387	80241.01421	2630.61699
0.17343	80186.68063	2629.61699
0.17298	80132.40421	2628.61699
0.17254	80078.18473	2627.61699
0.17210	80024.02196	2626.61699
0.17166	79969.91568	2625.61699
0.17122	79915.86566	2624.61699
0.17078	79861.87170	2623.61699
0.17034	79807.93357	2622.61699
0.16991	79754.05104	2621.61699
0.16947	79700.22392	2620.61699
0.16904	79646.45198	2619.61699
0.16861	79592.73500	2618.61699
0.16818	79539.07278	2617.61699
0.16775	79485.46511	2616.61699
0.16732	79431.91177	2615.61699
0.16690	79378.41255	2614.61699
0.16647	79324.96724	2613.61699
0.16605	79271.57565	2612.61699
0.16562	79218.23756	2611.61699
0.16520	79164.95276	2610.61699
0.16478	79111.72106	2609.61699
0.16436	79058.54225	2608.61699
0.16394	79005.41613	2607.61699
0.16353	78952.34249	2606.61699
0.16311	78899.32115	2605.61699
0.16270	78846.35189	2604.61699
0.16228	78793.43453	2603.61699
0.16187	78740.56887	2602.61699
0.16146	78687.75470	2601.61699
0.16105	78634.99184	2600.61699
0.16064	78582.28010	2599.61699
0.16024	78529.61928	2598.61699
0.15983	78477.00918	2597.61699
0.15942	78424.44963	2596.61699
0.15902	78371.94042	2595.61699
0.15862	78319.48138	2594.61699
0.15822	78267.07231	2593.61699
0.15782	78214.71303	2592.61699
0.15742	78162.40335	2591.61699
0.15702	78110.14309	2590.61699
0.15662	78057.93206	2589.61699
0.15623	78005.77009	2588.61699
0.15583	77953.65698	2587.61699
0.15544	77901.59257	2586.61699
0.15504	77849.57667	2585.61699
0.15465	77797.60909	2584.61699
0.15426	77745.68968	2583.61699
0.15387	77693.81823	2582.61699
0.15348	77641.99459	2581.61699
0.15310	77590.21858	2580.61699
0.15271	77538.49002	2579.61699
0.15233	77486.80873	2578.61699
0.15194	77435.17456	2577.61699
0.15156	77383.58731	2576.61699
0.15118	77332.04683	2575.61699
0.15080	77280.55295	2574.61699
0.15042	77229.10549	2573.61699
0.15004	77177.70429	2572.61699
0.14966	77126.34918	2571.61699
0.14928	77075.04000	2570.61699
0.14891	77023.77657	2569.61699
0.14853	76972.55874	2568.61699
0.14816	76921.38634	2567.61699
0.14779	76870.25920	2566.61699
0.14741	76819.17718	2565.61699
0.14704	76768.14010	2564.61699
0.14667	76717.14780	2563.61699
0.14631	76666.20013	2562.61699
0.14594	76615.29693	2561.61699
0.14557	76564.43803	2560.61699
0.14521	76513.62329	2559.61699
0.14484	76462.85254	2558.61699
0.14448	76412.12563	2557.61699
0.14411	76361.44241	2556.61699
0.14375	76310.80272	2555.61699
0.14339	76260.20641	2554.61699
0.14303	76209.65332	2553.61699
0.14267	76159.14331	2552.61699
0.14232	76108.67622	2551.61699
0.14196	76058.25190	2550.61699
0.14160	76007.87021	2549.61699
0.14125	75957.53100	2548.61699
0.14089	75907.23411	2547.61699
0.14054	75856.97941	2546.61699
0.14019	75806.76674	2545.61699
0.13984	75756.59596	2544.61699
0.13949	75706.46693	2543.61699
0.13914	75656.37949	2542.61699
0.13879	75606.33352	2541.61699
0.13844	75556.32885	2540.61699
0.13809	75506.36537	2539.61699
0.13775	75456.44291	2538.61699
0.13740	75406.56135	2537.61699
0.13706	75356.72053	2536.61699
0.13672	75306.92033	2535.61699
0.13637	75257.16061	2534.61699
0.13603	75207.44122	2533.61699
0.13569	75157.76203	2532.61699
0.13535	75108.12291	2531.61699
0.13501	75058.52371	2530.61699
0.13467	75008.96431	2529.61699
0.13434	74959.44456	2528.61699
0.13400	74909.96434	2527.61699
0.13367	74860.52352	2526.61699
0.13333	74811.12195	2525.61699
0.13300	74761.75951	2524.61699
0.13267	74712.43608	2523.61699
0.13233	74663.15150	2522.61699
0.13200	74613.90567	2521.61699
0.13167	74564.69845	2520.61699
0.13134	74515.52971	2519.61699
0.13101	74466.39932	2518.61699
0.13069	74417.30715	2517.61699
0.13036	74368.25309	2516.61699
0.13003	74319.23700	2515.61699
0.12971	74270.25876	2514.61699
0.12938	74221.31825	2513.61699
0.12906	74172.41533	2512.61699
0.12874	74123.54990	2511.61699
0.12841	74074.72181	2510.61699
0.12809	74025.93096	2509.61699
0.12777	73977.17722	2508.61699
0.12745	73928.46047	2507.61699
