Mole fraction of liquid	Heat per mole [J]	Temperature [K]
1.00000	1.34694E5	3167.14605
0.99997	1.34689E5	3167.05042
0.99539	1.34456E5	3166.05042
0.99084	1.34225E5	3165.05042
0.98632	1.33994E5	3164.05042
0.98182	1.33766E5	3163.05042
0.97736	1.33538E5	3162.05042
0.97292	1.33312E5	3161.05042
0.96851	1.33086E5	3160.05042
0.96413	1.32863E5	3159.05042
0.95978	1.32640E5	3158.05042
0.95545	1.32419E5	3157.05042
0.95116	1.32198E5	3156.05042
0.94689	1.31979E5	3155.05042
0.94264	1.31762E5	3154.05042
0.93843	1.31545E5	3153.05042
0.93424	1.31330E5	3152.05042
0.93008	1.31115E5	3151.05042
0.92594	1.30902E5	3150.05042
0.92183	1.30690E5	3149.05042
0.91774	1.30480E5	3148.05042
0.91368	1.30270E5	3147.05042
0.90965	1.30061E5	3146.05042
0.90564	1.29854E5	3145.05042
0.90165	1.29648E5	3144.05042
0.89770	1.29442E5	3143.05042
0.89376	1.29238E5	3142.05042
0.88985	1.29035E5	3141.05042
0.88596	1.28833E5	3140.05042
0.88210	1.28632E5	3139.05042
0.87826	1.28432E5	3138.05042
0.87445	1.28233E5	3137.05042
0.87065	1.28035E5	3136.05042
0.86688	1.27838E5	3135.05042
0.86314	1.27642E5	3134.05042
0.85942	1.27447E5	3133.05042
0.85571	1.27254E5	3132.05042
0.85204	1.27061E5	3131.05042
0.84838	1.26869E5	3130.05042
0.84475	1.26678E5	3129.05042
0.84114	1.26488E5	3128.05042
0.83754	1.26299E5	3127.05042
0.83398	1.26111E5	3126.05042
0.83043	1.25924E5	3125.05042
0.82690	1.25737E5	3124.05042
0.82340	1.25552E5	3123.05042
0.81991	1.25368E5	3122.05042
0.81645	1.25184E5	3121.05042
0.81301	1.25002E5	3120.05042
0.80959	1.24820E5	3119.05042
0.80618	1.24639E5	3118.05042
0.80280	1.24459E5	3117.05042
0.79944	1.24280E5	3116.05042
0.79610	1.24102E5	3115.05042
0.79278	1.23925E5	3114.05042
0.78947	1.23749E5	3113.05042
0.78619	1.23573E5	3112.05042
0.78293	1.23398E5	3111.05042
0.77968	1.23224E5	3110.05042
0.77645	1.23051E5	3109.05042
0.77325	1.22879E5	3108.05042
0.77006	1.22707E5	3107.05042
0.76689	1.22537E5	3106.05042
0.76374	1.22367E5	3105.05042
0.76060	1.22198E5	3104.05042
0.75749	1.22030E5	3103.05042
0.75439	1.21862E5	3102.05042
0.75131	1.21695E5	3101.05042
0.74825	1.21529E5	3100.05042
0.74520	1.21364E5	3099.05042
0.74217	1.21200E5	3098.05042
0.73916	1.21036E5	3097.05042
0.73617	1.20873E5	3096.05042
0.73319	1.20711E5	3095.05042
0.73023	1.20550E5	3094.05042
0.72729	1.20389E5	3093.05042
0.72437	1.20229E5	3092.05042
0.72146	1.20070E5	3091.05042
0.71856	1.19911E5	3090.05042
0.71569	1.19753E5	3089.05042
0.71283	1.19596E5	3088.05042
0.70998	1.19440E5	3087.05042
0.70716	1.19284E5	3086.05042
0.70434	1.19129E5	3085.05042
0.70155	1.18974E5	3084.05042
0.69876	1.18821E5	3083.05042
0.69600	1.18668E5	3082.05042
0.69325	1.18515E5	3081.05042
0.69051	1.18363E5	3080.05042
0.68779	1.18212E5	3079.05042
0.68509	1.18062E5	3078.05042
0.68240	1.17912E5	3077.05042
0.67972	1.17763E5	3076.05042
0.67706	1.17615E5	3075.05042
0.67442	1.17467E5	3074.05042
0.67178	1.17319E5	3073.05042
0.66917	1.17173E5	3072.05042
0.66656	1.17027E5	3071.05042
0.66397	1.16881E5	3070.05042
0.66140	1.16737E5	3069.05042
0.65884	1.16593E5	3068.05042
0.65629	1.16449E5	3067.05042
0.65376	1.16306E5	3066.05042
0.65124	1.16164E5	3065.05042
0.64873	1.16022E5	3064.05042
0.64624	1.15881E5	3063.05042
0.64376	1.15740E5	3062.05042
0.64130	1.15600E5	3061.05042
0.63885	1.15460E5	3060.05042
0.63641	1.15321E5	3059.05042
0.63398	1.15183E5	3058.05042
0.63157	1.15045E5	3057.05042
0.62917	1.14908E5	3056.05042
0.62678	1.14771E5	3055.05042
0.62440	1.14635E5	3054.05042
0.62204	1.14500E5	3053.05042
0.61969	1.14365E5	3052.05042
0.61735	1.14230E5	3051.05042
0.61503	1.14096E5	3050.05042
0.61272	1.13963E5	3049.05042
0.61042	1.13830E5	3048.05042
0.60813	1.13697E5	3047.05042
0.60585	1.13565E5	3046.05042
0.60359	1.13434E5	3045.05042
0.60133	1.13303E5	3044.05042
0.59909	1.13173E5	3043.05042
0.59686	1.13043E5	3042.05042
0.59464	1.12913E5	3041.05042
0.59244	1.12784E5	3040.05042
0.59024	1.12656E5	3039.05042
0.58806	1.12528E5	3038.05042
0.58589	1.12401E5	3037.05042
0.58373	1.12274E5	3036.05042
0.58158	1.12147E5	3035.05042
0.57944	1.12021E5	3034.05042
0.57731	1.11896E5	3033.05042
0.57519	1.11770E5	3032.05042
0.57308	1.11646E5	3031.05042
0.57099	1.11522E5	3030.05042
0.56890	1.11398E5	3029.05042
0.56683	1.11275E5	3028.05042
0.56477	1.11152E5	3027.05042
0.56271	1.11030E5	3026.05042
0.56067	1.10908E5	3025.05042
0.55864	1.10786E5	3024.05042
0.55662	1.10665E5	3023.05042
0.55460	1.10545E5	3022.05042
0.55260	1.10425E5	3021.05042
0.55061	1.10305E5	3020.05042
0.54863	1.10186E5	3019.05042
0.54666	1.10067E5	3018.05042
0.54469	1.09948E5	3017.05042
0.54274	1.09830E5	3016.05042
0.54080	1.09713E5	3015.05042
0.53887	1.09596E5	3014.05042
0.53694	1.09479E5	3013.05042
0.53503	1.09362E5	3012.05042
0.53312	1.09246E5	3011.05042
0.53123	1.09131E5	3010.05042
0.52934	1.09016E5	3009.05042
0.52747	1.08901E5	3008.05042
0.52560	1.08787E5	3007.05042
0.52374	1.08673E5	3006.05042
0.52189	1.08559E5	3005.05042
0.52006	1.08446E5	3004.05042
0.51822	1.08333E5	3003.05042
0.51640	1.08221E5	3002.05042
0.51459	1.08109E5	3001.05042
0.51279	1.07997E5	3000.05042
0.51099	1.07886E5	2999.05042
0.50920	1.07775E5	2998.05042
0.50743	1.07664E5	2997.05042
0.50566	1.07554E5	2996.05042
0.50390	1.07444E5	2995.05042
0.50215	1.07334E5	2994.05042
0.50040	1.07225E5	2993.05042
0.49867	1.07117E5	2992.05042
0.49694	1.07008E5	2991.05042
0.49522	1.06900E5	2990.05042
0.49351	1.06792E5	2989.05042
0.49181	1.06685E5	2988.05042
0.49011	1.06578E5	2987.05042
0.48843	1.06471E5	2986.05042
0.48675	1.06365E5	2985.05042
0.48508	1.06259E5	2984.05042
0.48342	1.06153E5	2983.05042
0.48177	1.06048E5	2982.05042
0.48012	1.05943E5	2981.05042
0.47848	1.05838E5	2980.05042
0.47685	1.05734E5	2979.05042
0.47523	1.05630E5	2978.05042
0.47361	1.05526E5	2977.05042
0.47200	1.05423E5	2976.05042
0.47040	1.05320E5	2975.05042
0.46881	1.05217E5	2974.05042
0.46722	1.05115E5	2973.05042
0.46565	1.05013E5	2972.05042
0.46408	1.04911E5	2971.05042
0.46251	1.04810E5	2970.05042
0.46096	1.04708E5	2969.05042
0.45941	1.04608E5	2968.05042
0.45787	1.04507E5	2967.05042
0.45633	1.04407E5	2966.05042
0.45481	1.04307E5	2965.05042
0.45328	1.04207E5	2964.05042
0.45177	1.04108E5	2963.05042
0.45027	1.04009E5	2962.05042
0.44877	1.03910E5	2961.05042
0.44727	1.03812E5	2960.05042
0.44579	1.03713E5	2959.05042
0.44431	1.03615E5	2958.05042
0.44284	1.03518E5	2957.05042
0.44137	1.03420E5	2956.05042
0.43991	1.03323E5	2955.05042
0.43846	1.03227E5	2954.05042
0.43702	1.03130E5	2953.05042
0.43558	1.03034E5	2952.05042
0.43414	1.02938E5	2951.05042
0.43272	1.02842E5	2950.05042
0.43130	1.02747E5	2949.05042
0.42989	1.02652E5	2948.05042
0.42848	1.02557E5	2947.05042
0.42708	1.02462E5	2946.05042
0.42569	1.02368E5	2945.05042
0.42430	1.02274E5	2944.05042
0.42292	1.02180E5	2943.05042
0.42154	1.02087E5	2942.05042
0.42017	1.01993E5	2941.05042
0.41881	1.01900E5	2940.05042
0.41745	1.01808E5	2939.05042
0.41610	1.01715E5	2938.05042
0.41476	1.01623E5	2937.05042
0.41342	1.01531E5	2936.05042
0.41208	1.01439E5	2935.05042
0.41076	1.01348E5	2934.05042
0.40943	1.01256E5	2933.05042
0.40812	1.01165E5	2932.05042
0.40681	1.01075E5	2931.05042
0.40551	1.00984E5	2930.05042
0.40421	1.00894E5	2929.05042
0.40291	1.00804E5	2928.05042
0.40163	1.00714E5	2927.05042
0.40035	1.00624E5	2926.05042
0.39907	1.00535E5	2925.05042
0.39780	1.00446E5	2924.05042
0.39654	1.00357E5	2923.05042
0.39528	1.00268E5	2922.05042
0.39402	1.00180E5	2921.05042
0.39278	1.00092E5	2920.05042
0.39153	1.00004E5	2919.05042
0.39030	99916.14505	2918.05042
0.38906	99828.64053	2917.05042
0.38784	99741.35908	2916.05042
0.38662	99654.29941	2915.05042
0.38540	99567.46023	2914.05042
0.38419	99480.84025	2913.05042
0.38298	99394.43820	2912.05042
0.38178	99308.25283	2911.05042
0.38059	99222.28286	2910.05042
0.37940	99136.52706	2909.05042
0.37821	99050.98420	2908.05042
0.37703	98965.65305	2907.05042
0.37586	98880.53238	2906.05042
0.37469	98795.62099	2905.05042
0.37352	98710.91768	2904.05042
0.37236	98626.42125	2903.05042
0.37120	98542.13052	2902.05042
0.37005	98458.04432	2901.05042
0.36891	98374.16148	2900.05042
0.36777	98290.48084	2899.05042
0.36663	98207.00124	2898.05042
0.36550	98123.72155	2897.05042
0.36437	98040.64064	2896.05042
0.36325	97957.75737	2895.05042
0.36213	97875.07062	2894.05042
0.36102	97792.57930	2893.05042
0.35991	97710.28228	2892.05042
0.35881	97628.17849	2891.05042
0.35771	97546.26683	2890.05042
0.35662	97464.54622	2889.05042
0.35553	97383.01559	2888.05042
0.35444	97301.67387	2887.05042
0.35336	97220.52002	2886.05042
0.35229	97139.55297	2885.05042
0.35122	97058.77169	2884.05042
0.35015	96978.17514	2883.05042
0.34909	96897.76230	2882.05042
0.34803	96817.53213	2881.05042
0.34697	96737.48364	2880.05042
0.34592	96657.61581	2879.05042
0.34488	96577.92764	2878.05042
0.34384	96498.41814	2877.05042
0.34280	96419.08633	2876.05042
0.34177	96339.93122	2875.05042
0.34074	96260.95184	2874.05042
0.33972	96182.14723	2873.05042
0.33870	96103.51643	2872.05042
0.33768	96025.05849	2871.05042
0.33667	95946.77245	2870.05042
0.33566	95868.65738	2869.05042
0.33466	95790.71236	2868.05042
0.33366	95712.93644	2867.05042
0.33266	95635.32871	2866.05042
0.33167	95557.88826	2865.05042
0.33068	95480.61418	2864.05042
0.32970	95403.50557	2863.05042
0.32872	95326.56153	2862.05042
0.32774	95249.78117	2861.05042
0.32677	95173.16361	2860.05042
0.32580	95096.70797	2859.05042
0.32484	95020.41338	2858.05042
0.32388	94944.27898	2857.05042
0.32292	94868.30390	2856.05042
0.32197	94792.48730	2855.05042
0.32102	94716.82832	2854.05042
0.32008	94641.32612	2853.05042
0.31913	94565.97986	2852.05042
0.31820	94490.78872	2851.05042
0.31726	94415.75187	2850.05042
0.31633	94340.86848	2849.05042
0.31541	94266.13775	2848.05042
0.31448	94191.55886	2847.05042
0.31356	94117.13101	2846.05042
0.31265	94042.85341	2845.05042
0.31173	93968.72525	2844.05042
0.31083	93894.74576	2843.05042
0.30992	93820.91414	2842.05042
0.30902	93747.22963	2841.05042
0.30812	93673.69144	2840.05042
0.30723	93600.29882	2839.05042
0.30634	93527.05100	2838.05042
0.30545	93453.94722	2837.05042
0.30456	93380.98674	2836.05042
0.30368	93308.16880	2835.05042
0.30281	93235.49266	2834.05042
0.30193	93162.95759	2833.05042
0.30106	93090.56285	2832.05042
0.30019	93018.30772	2831.05042
0.29933	92946.19147	2830.05042
0.29847	92874.21339	2829.05042
0.29761	92802.37276	2828.05042
0.29676	92730.66887	2827.05042
0.29591	92659.10103	2826.05042
0.29506	92587.66852	2825.05042
0.29422	92516.37065	2824.05042
0.29337	92445.20675	2823.05042
0.29254	92374.17611	2822.05042
0.29170	92303.27806	2821.05042
0.29087	92232.51192	2820.05042
0.29004	92161.87701	2819.05042
0.28922	92091.37268	2818.05042
0.28840	92020.99825	2817.05042
0.28758	91950.75307	2816.05042
0.28676	91880.63648	2815.05042
0.28595	91810.64783	2814.05042
0.28514	91740.78648	2813.05042
0.28433	91671.05177	2812.05042
0.28353	91601.44308	2811.05042
0.28273	91531.95976	2810.05042
0.28193	91462.60119	2809.05042
0.28113	91393.36673	2808.05042
0.28034	91324.25578	2807.05042
0.27955	91255.26770	2806.05042
0.27877	91186.40189	2805.05042
0.27798	91117.65774	2804.05042
0.27720	91049.03463	2803.05042
0.27643	90980.53196	2802.05042
0.27565	90912.14914	2801.05042
0.27488	90843.88557	2800.05042
0.27411	90775.74066	2799.05042
0.27335	90707.71382	2798.05042
0.27258	90639.80446	2797.05042
0.27182	90572.01202	2796.05042
0.27107	90504.33590	2795.05042
0.27031	90436.77554	2794.05042
0.26956	90369.33037	2793.05042
0.26881	90301.99982	2792.05042
0.26807	90234.78333	2791.05042
0.26732	90167.68034	2790.05042
0.26658	90100.69029	2789.05042
0.26584	90033.81264	2788.05042
0.26511	89967.04684	2787.05042
0.26438	89900.39234	2786.05042
0.26365	89833.84859	2785.05042
0.26292	89767.41507	2784.05042
0.26219	89701.09124	2783.05042
0.26147	89634.87656	2782.05042
0.26075	89568.77051	2781.05042
0.26003	89502.77256	2780.05042
0.25932	89436.88219	2779.05042
0.25861	89371.09888	2778.05042
0.25790	89305.42212	2777.05042
0.25719	89239.85140	2776.05042
0.25649	89174.38621	2775.05042
0.25579	89109.02604	2774.05042
0.25509	89043.77038	2773.05042
0.25439	88978.61875	2772.05042
0.25370	88913.57064	2771.05042
0.25300	88848.62556	2770.05042
0.25231	88783.78302	2769.05042
0.25163	88719.04254	2768.05042
0.25094	88654.40362	2767.05042
0.25026	88589.86579	2766.05042
0.24958	88525.42857	2765.05042
0.24890	88461.09149	2764.05042
0.24823	88396.85406	2763.05042
0.24756	88332.71583	2762.05042
0.24689	88268.67632	2761.05042
0.24622	88204.73508	2760.05042
0.24555	88140.89164	2759.05042
0.24489	88077.14553	2758.05042
0.24423	88013.49632	2757.05042
0.24357	87949.94354	2756.05042
0.24292	87886.48675	2755.05042
0.24226	87823.12549	2754.05042
0.24161	87759.85932	2753.05042
0.24096	87696.68781	2752.05042
0.24031	87633.61050	2751.05042
0.23967	87570.62698	2750.05042
0.23903	87507.73679	2749.05042
0.23839	87444.93951	2748.05042
0.23775	87382.23472	2747.05042
0.23711	87319.62198	2746.05042
0.23648	87257.10087	2745.05042
0.23585	87194.67098	2744.05042
0.23522	87132.33188	2743.05042
0.23459	87070.08315	2742.05042
0.23397	87007.92438	2741.05042
0.23334	86945.85517	2740.05042
0.23272	86883.87511	2739.05042
0.23210	86821.98377	2738.05042
0.23149	86760.18078	2737.05042
0.23087	86698.46571	2736.05042
0.23026	86636.83818	2735.05042
0.22965	86575.29779	2734.05042
0.22904	86513.84414	2733.05042
0.22844	86452.47684	2732.05042
0.22783	86391.19550	2731.05042
0.22723	86329.99974	2730.05042
0.22663	86268.88916	2729.05042
0.22603	86207.86340	2728.05042
0.22544	86146.92206	2727.05042
0.22484	86086.06476	2726.05042
0.22425	86025.29114	2725.05042
0.22366	85964.60082	2724.05042
0.22307	85903.99343	2723.05042
0.22249	85843.46859	2722.05042
0.22190	85783.02594	2721.05042
0.22132	85722.66512	2720.05042
0.22074	85662.38577	2719.05042
0.22016	85602.18751	2718.05042
0.21959	85542.07000	2717.05042
0.21901	85482.03287	2716.05042
0.21844	85422.07578	2715.05042
0.21787	85362.19836	2714.05042
0.21730	85302.40028	2713.05042
0.21673	85242.68118	2712.05042
0.21617	85183.04071	2711.05042
0.21561	85123.47853	2710.05042
0.21505	85063.99430	2709.05042
0.21449	85004.58768	2708.05042
0.21393	84945.25833	2707.05042
0.21337	84886.00591	2706.05042
0.21282	84826.83009	2705.05042
0.21227	84767.73054	2704.05042
0.21172	84708.70692	2703.05042
0.21117	84649.75891	2702.05042
0.21062	84590.88618	2701.05042
0.21008	84532.08841	2700.05042
0.20953	84473.36527	2699.05042
0.20899	84414.71644	2698.05042
0.20845	84356.14160	2697.05042
0.20792	84297.64044	2696.05042
0.20738	84239.21263	2695.05042
0.20685	84180.85787	2694.05042
0.20631	84122.57584	2693.05042
0.20578	84064.36624	2692.05042
0.20525	84006.22875	2691.05042
0.20473	83948.16307	2690.05042
0.20420	83890.16889	2689.05042
0.20368	83832.24590	2688.05042
0.20315	83774.39382	2687.05042
0.20263	83716.61233	2686.05042
0.20211	83658.90114	2685.05042
0.20160	83601.25996	2684.05042
0.20108	83543.68848	2683.05042
0.20057	83486.18642	2682.05042
0.20006	83428.75348	2681.05042
0.19954	83371.38938	2680.05042
0.19904	83314.09382	2679.05042
0.19853	83256.86652	2678.05042
0.19802	83199.70720	2677.05042
0.19752	83142.61556	2676.05042
0.19701	83085.59134	2675.05042
0.19651	83028.63424	2674.05042
0.19601	82971.74400	2673.05042
0.19552	82914.92032	2672.05042
0.19502	82858.16295	2671.05042
0.19452	82801.47160	2670.05042
0.19403	82744.84600	2669.05042
0.19354	82688.28588	2668.05042
0.19305	82631.79098	2667.05042
0.19256	82575.36102	2666.05042
0.19207	82518.99573	2665.05042
0.19159	82462.69486	2664.05042
0.19110	82406.45814	2663.05042
0.19062	82350.28530	2662.05042
0.19014	82294.17609	2661.05042
0.18966	82238.13025	2660.05042
0.18918	82182.14752	2659.05042
0.18871	82126.22765	2658.05042
0.18823	82070.37037	2657.05042
0.18776	82014.57544	2656.05042
0.18728	81958.84260	2655.05042
0.18681	81903.17161	2654.05042
0.18634	81847.56221	2653.05042
0.18588	81792.01416	2652.05042
0.18541	81736.52721	2651.05042
0.18494	81681.10111	2650.05042
0.18448	81625.73563	2649.05042
0.18402	81570.43052	2648.05042
0.18356	81515.18553	2647.05042
0.18310	81460.00043	2646.05042
0.18264	81404.87498	2645.05042
0.18218	81349.80895	2644.05042
0.18173	81294.80209	2643.05042
0.18127	81239.85418	2642.05042
0.18082	81184.96498	2641.05042
0.18037	81130.13425	2640.05042
0.17992	81075.36177	2639.05042
0.17947	81020.64731	2638.05042
0.17903	80965.99064	2637.05042
0.17858	80911.39153	2636.05042
0.17814	80856.84976	2635.05042
0.17769	80802.36510	2634.05042
0.17725	80747.93733	2633.05042
0.17681	80693.56623	2632.05042
0.17637	80639.25157	2631.05042
0.17593	80584.99315	2630.05042
0.17550	80530.79073	2629.05042
0.17506	80476.64410	2628.05042
0.17463	80422.55305	2627.05042
0.17420	80368.51735	2626.05042
0.17376	80314.53681	2625.05042
0.17333	80260.61120	2624.05042
0.17291	80206.74031	2623.05042
0.17248	80152.92393	2622.05042
0.17205	80099.16186	2621.05042
0.17163	80045.45388	2620.05042
0.17120	79991.79979	2619.05042
0.17078	79938.19938	2618.05042
0.17036	79884.65246	2617.05042
0.16994	79831.15880	2616.05042
0.16952	79777.71822	2615.05042
0.16910	79724.33050	2614.05042
0.16869	79670.99546	2613.05042
0.16827	79617.71289	2612.05042
0.16786	79564.48259	2611.05042
0.16744	79511.30436	2610.05042
0.16703	79458.17802	2609.05042
0.16662	79405.10336	2608.05042
0.16621	79352.08018	2607.05042
0.16581	79299.10831	2606.05042
0.16540	79246.18754	2605.05042
0.16499	79193.31768	2604.05042
0.16459	79140.49855	2603.05042
0.16419	79087.72996	2602.05042
0.16378	79035.01171	2601.05042
0.16338	78982.34362	2600.05042
0.16298	78929.72551	2599.05042
0.16258	78877.15718	2598.05042
0.16219	78824.63846	2597.05042
0.16179	78772.16917	2596.05042
0.16140	78719.74911	2595.05042
0.16100	78667.37812	2594.05042
0.16061	78615.05600	2593.05042
0.16022	78562.78259	2592.05042
0.15983	78510.55769	2591.05042
0.15944	78458.38114	2590.05042
0.15905	78406.25276	2589.05042
0.15866	78354.17237	2588.05042
0.15827	78302.13980	2587.05042
0.15789	78250.15488	2586.05042
0.15750	78198.21742	2585.05042
0.15712	78146.32727	2584.05042
0.15674	78094.48425	2583.05042
0.15636	78042.68818	2582.05042
0.15598	77990.93891	2581.05042
0.15560	77939.23626	2580.05042
0.15522	77887.58006	2579.05042
0.15484	77835.97015	2578.05042
0.15447	77784.40636	2577.05042
0.15409	77732.88854	2576.05042
0.15372	77681.41650	2575.05042
0.15335	77629.99010	2574.05042
0.15298	77578.60916	2573.05042
0.15261	77527.27354	2572.05042
0.15224	77475.98306	2571.05042
0.15187	77424.73756	2570.05042
0.15150	77373.53690	2569.05042
0.15113	77322.38090	2568.05042
0.15077	77271.26942	2567.05042
0.15040	77220.20230	2566.05042
0.15004	77169.17938	2565.05042
0.14968	77118.20050	2564.05042
0.14932	77067.26552	2563.05042
0.14896	77016.37427	2562.05042
0.14860	76965.52661	2561.05042
0.14824	76914.72239	2560.05042
0.14788	76863.96145	2559.05042
0.14752	76813.24365	2558.05042
0.14717	76762.56883	2557.05042
0.14681	76711.93685	2556.05042
0.14646	76661.34756	2555.05042
0.14611	76610.80080	2554.05042
0.14575	76560.29645	2553.05042
0.14540	76509.83434	2552.05042
0.14505	76459.41434	2551.05042
0.14471	76409.03630	2550.05042
0.14436	76358.70008	2549.05042
0.14401	76308.40553	2548.05042
0.14366	76258.15252	2547.05042
0.14332	76207.94090	2546.05042
0.14297	76157.77054	2545.05042
0.14263	76107.64128	2544.05042
0.14229	76057.55300	2543.05042
0.14195	76007.50555	2542.05042
0.14161	75957.49880	2541.05042
0.14127	75907.53262	2540.05042
0.14093	75857.60685	2539.05042
0.14059	75807.72138	2538.05042
0.14025	75757.87606	2537.05042
0.13992	75708.07076	2536.05042
0.13958	75658.30535	2535.05042
0.13925	75608.57970	2534.05042
0.13891	75558.89366	2533.05042
0.13858	75509.24712	2532.05042
0.13825	75459.63994	2531.05042
0.13792	75410.07198	2530.05042
0.13759	75360.54313	2529.05042
0.13726	75311.05325	2528.05042
0.13693	75261.60222	2527.05042
0.13660	75212.18990	2526.05042
0.13627	75162.81617	2525.05042
0.13595	75113.48090	2524.05042
0.13562	75064.18397	2523.05042
0.13530	75014.92525	2522.05042
0.13498	74965.70463	2521.05042
0.13465	74916.52197	2520.05042
0.13433	74867.37715	2519.05042
0.13401	74818.27004	2518.05042
0.13369	74769.20054	2517.05042
0.13337	74720.16852	2516.05042
0.13305	74671.17385	2515.05042
0.13273	74622.21641	2514.05042
0.13242	74573.29609	2513.05042
0.13210	74524.41277	2512.05042
0.13179	74475.56633	2511.05042
0.13147	74426.75665	2510.05042
