Mole fraction of liquid	Heat per mole [J]	Temperature [K]
1.00000	1.34826E5	3168.38011
0.99997	1.34820E5	3168.28448
0.99539	1.34588E5	3167.28448
0.99083	1.34357E5	3166.28448
0.98630	1.34127E5	3165.28448
0.98181	1.33899E5	3164.28448
0.97734	1.33672E5	3163.28448
0.97290	1.33446E5	3162.28448
0.96849	1.33222E5	3161.28448
0.96410	1.32998E5	3160.28448
0.95975	1.32776E5	3159.28448
0.95542	1.32555E5	3158.28448
0.95112	1.32336E5	3157.28448
0.94685	1.32117E5	3156.28448
0.94261	1.31900E5	3155.28448
0.93839	1.31684E5	3154.28448
0.93420	1.31469E5	3153.28448
0.93003	1.31255E5	3152.28448
0.92589	1.31043E5	3151.28448
0.92178	1.30831E5	3150.28448
0.91770	1.30621E5	3149.28448
0.91364	1.30412E5	3148.28448
0.90960	1.30204E5	3147.28448
0.90559	1.29997E5	3146.28448
0.90160	1.29791E5	3145.28448
0.89764	1.29586E5	3144.28448
0.89371	1.29383E5	3143.28448
0.88980	1.29180E5	3142.28448
0.88591	1.28979E5	3141.28448
0.88205	1.28778E5	3140.28448
0.87821	1.28579E5	3139.28448
0.87439	1.28380E5	3138.28448
0.87060	1.28183E5	3137.28448
0.86683	1.27987E5	3136.28448
0.86308	1.27791E5	3135.28448
0.85936	1.27597E5	3134.28448
0.85566	1.27404E5	3133.28448
0.85198	1.27211E5	3132.28448
0.84833	1.27020E5	3131.28448
0.84469	1.26829E5	3130.28448
0.84108	1.26640E5	3129.28448
0.83749	1.26451E5	3128.28448
0.83393	1.26264E5	3127.28448
0.83038	1.26077E5	3126.28448
0.82685	1.25892E5	3125.28448
0.82335	1.25707E5	3124.28448
0.81987	1.25523E5	3123.28448
0.81641	1.25340E5	3122.28448
0.81296	1.25158E5	3121.28448
0.80954	1.24977E5	3120.28448
0.80614	1.24797E5	3119.28448
0.80276	1.24617E5	3118.28448
0.79940	1.24439E5	3117.28448
0.79606	1.24261E5	3116.28448
0.79274	1.24084E5	3115.28448
0.78944	1.23909E5	3114.28448
0.78616	1.23733E5	3113.28448
0.78289	1.23559E5	3112.28448
0.77965	1.23386E5	3111.28448
0.77643	1.23213E5	3110.28448
0.77322	1.23041E5	3109.28448
0.77003	1.22871E5	3108.28448
0.76687	1.22700E5	3107.28448
0.76372	1.22531E5	3106.28448
0.76058	1.22363E5	3105.28448
0.75747	1.22195E5	3104.28448
0.75437	1.22028E5	3103.28448
0.75130	1.21862E5	3102.28448
0.74824	1.21696E5	3101.28448
0.74519	1.21531E5	3100.28448
0.74217	1.21368E5	3099.28448
0.73916	1.21204E5	3098.28448
0.73617	1.21042E5	3097.28448
0.73320	1.20880E5	3096.28448
0.73024	1.20719E5	3095.28448
0.72730	1.20559E5	3094.28448
0.72438	1.20400E5	3093.28448
0.72147	1.20241E5	3092.28448
0.71858	1.20083E5	3091.28448
0.71571	1.19925E5	3090.28448
0.71285	1.19769E5	3089.28448
0.71001	1.19613E5	3088.28448
0.70718	1.19457E5	3087.28448
0.70437	1.19303E5	3086.28448
0.70158	1.19149E5	3085.28448
0.69880	1.18996E5	3084.28448
0.69604	1.18843E5	3083.28448
0.69329	1.18691E5	3082.28448
0.69056	1.18540E5	3081.28448
0.68784	1.18389E5	3080.28448
0.68514	1.18239E5	3079.28448
0.68245	1.18090E5	3078.28448
0.67978	1.17942E5	3077.28448
0.67712	1.17794E5	3076.28448
0.67448	1.17646E5	3075.28448
0.67185	1.17499E5	3074.28448
0.66924	1.17353E5	3073.28448
0.66664	1.17208E5	3072.28448
0.66405	1.17063E5	3071.28448
0.66148	1.16918E5	3070.28448
0.65893	1.16775E5	3069.28448
0.65638	1.16632E5	3068.28448
0.65385	1.16489E5	3067.28448
0.65134	1.16347E5	3066.28448
0.64884	1.16206E5	3065.28448
0.64635	1.16065E5	3064.28448
0.64387	1.15925E5	3063.28448
0.64141	1.15785E5	3062.28448
0.63896	1.15646E5	3061.28448
0.63653	1.15508E5	3060.28448
0.63410	1.15370E5	3059.28448
0.63169	1.15233E5	3058.28448
0.62930	1.15096E5	3057.28448
0.62691	1.14960E5	3056.28448
0.62454	1.14824E5	3055.28448
0.62218	1.14689E5	3054.28448
0.61984	1.14554E5	3053.28448
0.61750	1.14420E5	3052.28448
0.61518	1.14286E5	3051.28448
0.61287	1.14153E5	3050.28448
0.61058	1.14021E5	3049.28448
0.60829	1.13889E5	3048.28448
0.60602	1.13757E5	3047.28448
0.60376	1.13626E5	3046.28448
0.60151	1.13496E5	3045.28448
0.59927	1.13366E5	3044.28448
0.59705	1.13236E5	3043.28448
0.59483	1.13107E5	3042.28448
0.59263	1.12979E5	3041.28448
0.59044	1.12851E5	3040.28448
0.58826	1.12723E5	3039.28448
0.58609	1.12596E5	3038.28448
0.58394	1.12470E5	3037.28448
0.58179	1.12344E5	3036.28448
0.57965	1.12218E5	3035.28448
0.57753	1.12093E5	3034.28448
0.57542	1.11968E5	3033.28448
0.57332	1.11844E5	3032.28448
0.57122	1.11720E5	3031.28448
0.56914	1.11597E5	3030.28448
0.56707	1.11474E5	3029.28448
0.56501	1.11352E5	3028.28448
0.56297	1.11230E5	3027.28448
0.56093	1.11108E5	3026.28448
0.55890	1.10987E5	3025.28448
0.55688	1.10867E5	3024.28448
0.55487	1.10747E5	3023.28448
0.55287	1.10627E5	3022.28448
0.55089	1.10507E5	3021.28448
0.54891	1.10389E5	3020.28448
0.54694	1.10270E5	3019.28448
0.54498	1.10152E5	3018.28448
0.54304	1.10034E5	3017.28448
0.54110	1.09917E5	3016.28448
0.53917	1.09800E5	3015.28448
0.53725	1.09684E5	3014.28448
0.53534	1.09568E5	3013.28448
0.53344	1.09452E5	3012.28448
0.53155	1.09337E5	3011.28448
0.52967	1.09222E5	3010.28448
0.52780	1.09108E5	3009.28448
0.52593	1.08994E5	3008.28448
0.52408	1.08880E5	3007.28448
0.52224	1.08767E5	3006.28448
0.52040	1.08654E5	3005.28448
0.51858	1.08542E5	3004.28448
0.51676	1.08430E5	3003.28448
0.51495	1.08318E5	3002.28448
0.51315	1.08207E5	3001.28448
0.51136	1.08096E5	3000.28448
0.50958	1.07985E5	2999.28448
0.50780	1.07875E5	2998.28448
0.50604	1.07765E5	2997.28448
0.50428	1.07655E5	2996.28448
0.50254	1.07546E5	2995.28448
0.50080	1.07438E5	2994.28448
0.49907	1.07329E5	2993.28448
0.49734	1.07221E5	2992.28448
0.49563	1.07113E5	2991.28448
0.49392	1.07006E5	2990.28448
0.49223	1.06899E5	2989.28448
0.49054	1.06792E5	2988.28448
0.48886	1.06686E5	2987.28448
0.48718	1.06580E5	2986.28448
0.48552	1.06474E5	2985.28448
0.48386	1.06369E5	2984.28448
0.48221	1.06264E5	2983.28448
0.48057	1.06159E5	2982.28448
0.47893	1.06055E5	2981.28448
0.47731	1.05951E5	2980.28448
0.47569	1.05847E5	2979.28448
0.47408	1.05744E5	2978.28448
0.47247	1.05641E5	2977.28448
0.47088	1.05538E5	2976.28448
0.46929	1.05436E5	2975.28448
0.46771	1.05333E5	2974.28448
0.46613	1.05232E5	2973.28448
0.46457	1.05130E5	2972.28448
0.46301	1.05029E5	2971.28448
0.46146	1.04928E5	2970.28448
0.45991	1.04828E5	2969.28448
0.45838	1.04727E5	2968.28448
0.45685	1.04627E5	2967.28448
0.45532	1.04528E5	2966.28448
0.45381	1.04428E5	2965.28448
0.45230	1.04329E5	2964.28448
0.45080	1.04230E5	2963.28448
0.44930	1.04132E5	2962.28448
0.44781	1.04034E5	2961.28448
0.44633	1.03936E5	2960.28448
0.44486	1.03838E5	2959.28448
0.44339	1.03741E5	2958.28448
0.44193	1.03644E5	2957.28448
0.44048	1.03547E5	2956.28448
0.43903	1.03451E5	2955.28448
0.43759	1.03354E5	2954.28448
0.43615	1.03258E5	2953.28448
0.43472	1.03163E5	2952.28448
0.43330	1.03067E5	2951.28448
0.43189	1.02972E5	2950.28448
0.43048	1.02877E5	2949.28448
0.42908	1.02783E5	2948.28448
0.42768	1.02688E5	2947.28448
0.42629	1.02594E5	2946.28448
0.42491	1.02501E5	2945.28448
0.42353	1.02407E5	2944.28448
0.42216	1.02314E5	2943.28448
0.42079	1.02221E5	2942.28448
0.41944	1.02128E5	2941.28448
0.41808	1.02035E5	2940.28448
0.41674	1.01943E5	2939.28448
0.41540	1.01851E5	2938.28448
0.41406	1.01759E5	2937.28448
0.41273	1.01668E5	2936.28448
0.41141	1.01577E5	2935.28448
0.41009	1.01486E5	2934.28448
0.40878	1.01395E5	2933.28448
0.40748	1.01304E5	2932.28448
0.40618	1.01214E5	2931.28448
0.40488	1.01124E5	2930.28448
0.40359	1.01034E5	2929.28448
0.40231	1.00945E5	2928.28448
0.40103	1.00855E5	2927.28448
0.39976	1.00766E5	2926.28448
0.39850	1.00677E5	2925.28448
0.39724	1.00589E5	2924.28448
0.39598	1.00500E5	2923.28448
0.39473	1.00412E5	2922.28448
0.39349	1.00324E5	2921.28448
0.39225	1.00236E5	2920.28448
0.39102	1.00149E5	2919.28448
0.38979	1.00061E5	2918.28448
0.38857	99974.40076	2917.28448
0.38735	99887.55307	2916.28448
0.38614	99800.92447	2915.28448
0.38493	99714.51367	2914.28448
0.38373	99628.31940	2913.28448
0.38253	99542.34041	2912.28448
0.38134	99456.57544	2911.28448
0.38015	99371.02326	2910.28448
0.37897	99285.68264	2909.28448
0.37780	99200.55235	2908.28448
0.37663	99115.63117	2907.28448
0.37546	99030.91791	2906.28448
0.37430	98946.41137	2905.28448
0.37314	98862.11036	2904.28448
0.37199	98778.01370	2903.28448
0.37085	98694.12021	2902.28448
0.36970	98610.42874	2901.28448
0.36857	98526.93814	2900.28448
0.36744	98443.64725	2899.28448
0.36631	98360.55494	2898.28448
0.36519	98277.66008	2897.28448
0.36407	98194.96155	2896.28448
0.36295	98112.45823	2895.28448
0.36185	98030.14901	2894.28448
0.36074	97948.03281	2893.28448
0.35964	97866.10852	2892.28448
0.35855	97784.37507	2891.28448
0.35746	97702.83138	2890.28448
0.35637	97621.47639	2889.28448
0.35529	97540.30903	2888.28448
0.35422	97459.32825	2887.28448
0.35314	97378.53301	2886.28448
0.35208	97297.92227	2885.28448
0.35101	97217.49499	2884.28448
0.34995	97137.25016	2883.28448
0.34890	97057.18676	2882.28448
0.34785	96977.30377	2881.28448
0.34680	96897.60021	2880.28448
0.34576	96818.07507	2879.28448
0.34473	96738.72736	2878.28448
0.34369	96659.55610	2877.28448
0.34266	96580.56033	2876.28448
0.34164	96501.73906	2875.28448
0.34062	96423.09135	2874.28448
0.33960	96344.61622	2873.28448
0.33859	96266.31275	2872.28448
0.33758	96188.17998	2871.28448
0.33658	96110.21699	2870.28448
0.33558	96032.42283	2869.28448
0.33458	95954.79660	2868.28448
0.33359	95877.33737	2867.28448
0.33260	95800.04424	2866.28448
0.33162	95722.91630	2865.28448
0.33064	95645.95266	2864.28448
0.32967	95569.15242	2863.28448
0.32869	95492.51470	2862.28448
0.32773	95416.03862	2861.28448
0.32676	95339.72332	2860.28448
0.32580	95263.56791	2859.28448
0.32484	95187.57154	2858.28448
0.32389	95111.73336	2857.28448
0.32294	95036.05251	2856.28448
0.32200	94960.52815	2855.28448
0.32106	94885.15945	2854.28448
0.32012	94809.94558	2853.28448
0.31918	94734.88569	2852.28448
0.31825	94659.97898	2851.28448
0.31733	94585.22463	2850.28448
0.31640	94510.62183	2849.28448
0.31549	94436.16978	2848.28448
0.31457	94361.86766	2847.28448
0.31366	94287.71470	2846.28448
0.31275	94213.71010	2845.28448
0.31184	94139.85308	2844.28448
0.31094	94066.14286	2843.28448
0.31005	93992.57867	2842.28448
0.30915	93919.15974	2841.28448
0.30826	93845.88530	2840.28448
0.30737	93772.75461	2839.28448
0.30649	93699.76690	2838.28448
0.30561	93626.92144	2837.28448
0.30473	93554.21747	2836.28448
0.30386	93481.65426	2835.28448
0.30299	93409.23107	2834.28448
0.30212	93336.94719	2833.28448
0.30126	93264.80188	2832.28448
0.30040	93192.79443	2831.28448
0.29954	93120.92412	2830.28448
0.29869	93049.19025	2829.28448
0.29784	92977.59210	2828.28448
0.29699	92906.12899	2827.28448
0.29614	92834.80021	2826.28448
0.29530	92763.60508	2825.28448
0.29447	92692.54290	2824.28448
0.29363	92621.61300	2823.28448
0.29280	92550.81470	2822.28448
0.29197	92480.14733	2821.28448
0.29115	92409.61022	2820.28448
0.29033	92339.20270	2819.28448
0.28951	92268.92411	2818.28448
0.28869	92198.77381	2817.28448
0.28788	92128.75113	2816.28448
0.28707	92058.85544	2815.28448
0.28626	91989.08608	2814.28448
0.28546	91919.44242	2813.28448
0.28466	91849.92383	2812.28448
0.28386	91780.52967	2811.28448
0.28307	91711.25932	2810.28448
0.28228	91642.11216	2809.28448
0.28149	91573.08756	2808.28448
0.28070	91504.18492	2807.28448
0.27992	91435.40362	2806.28448
0.27914	91366.74306	2805.28448
0.27837	91298.20263	2804.28448
0.27759	91229.78173	2803.28448
0.27682	91161.47977	2802.28448
0.27605	91093.29617	2801.28448
0.27529	91025.23032	2800.28448
0.27453	90957.28165	2799.28448
0.27377	90889.44958	2798.28448
0.27301	90821.73353	2797.28448
0.27226	90754.13293	2796.28448
0.27151	90686.64720	2795.28448
0.27076	90619.27580	2794.28448
0.27001	90552.01814	2793.28448
0.26927	90484.87367	2792.28448
0.26853	90417.84185	2791.28448
0.26779	90350.92211	2790.28448
0.26706	90284.11392	2789.28448
0.26632	90217.41672	2788.28448
0.26559	90150.82997	2787.28448
0.26487	90084.35314	2786.28448
0.26414	90017.98569	2785.28448
0.26342	89951.72710	2784.28448
0.26270	89885.57683	2783.28448
0.26199	89819.53436	2782.28448
0.26127	89753.59917	2781.28448
0.26056	89687.77074	2780.28448
0.25985	89622.04856	2779.28448
0.25915	89556.43211	2778.28448
0.25844	89490.92090	2777.28448
0.25774	89425.51440	2776.28448
0.25704	89360.21213	2775.28448
0.25635	89295.01358	2774.28448
0.25566	89229.91825	2773.28448
0.25496	89164.92566	2772.28448
0.25428	89100.03531	2771.28448
0.25359	89035.24673	2770.28448
0.25291	88970.55941	2769.28448
0.25222	88905.97290	2768.28448
0.25155	88841.48669	2767.28448
0.25087	88777.10033	2766.28448
0.25020	88712.81335	2765.28448
0.24952	88648.62526	2764.28448
0.24886	88584.53561	2763.28448
0.24819	88520.54393	2762.28448
0.24752	88456.64976	2761.28448
0.24686	88392.85265	2760.28448
0.24620	88329.15214	2759.28448
0.24554	88265.54778	2758.28448
0.24489	88202.03912	2757.28448
0.24424	88138.62571	2756.28448
0.24359	88075.30711	2755.28448
0.24294	88012.08288	2754.28448
0.24229	87948.95258	2753.28448
0.24165	87885.91577	2752.28448
0.24101	87822.97203	2751.28448
0.24037	87760.12091	2750.28448
0.23973	87697.36201	2749.28448
0.23909	87634.69487	2748.28448
0.23846	87572.11910	2747.28448
0.23783	87509.63426	2746.28448
0.23720	87447.23994	2745.28448
0.23658	87384.93572	2744.28448
0.23595	87322.72120	2743.28448
0.23533	87260.59595	2742.28448
0.23471	87198.55958	2741.28448
0.23409	87136.61167	2740.28448
0.23348	87074.75183	2739.28448
0.23286	87012.97966	2738.28448
0.23225	86951.29475	2737.28448
0.23164	86889.69672	2736.28448
0.23104	86828.18516	2735.28448
0.23043	86766.75969	2734.28448
0.22983	86705.41992	2733.28448
0.22923	86644.16546	2732.28448
0.22863	86582.99593	2731.28448
0.22803	86521.91095	2730.28448
0.22744	86460.91014	2729.28448
0.22684	86399.99311	2728.28448
0.22625	86339.15951	2727.28448
0.22566	86278.40894	2726.28448
0.22508	86217.74105	2725.28448
0.22449	86157.15547	2724.28448
0.22391	86096.65182	2723.28448
0.22333	86036.22974	2722.28448
0.22275	85975.88888	2721.28448
0.22217	85915.62888	2720.28448
0.22160	85855.44936	2719.28448
0.22102	85795.34999	2718.28448
0.22045	85735.33041	2717.28448
0.21988	85675.39026	2716.28448
0.21932	85615.52919	2715.28448
0.21875	85555.74687	2714.28448
0.21819	85496.04293	2713.28448
0.21762	85436.41705	2712.28448
0.21706	85376.86888	2711.28448
0.21651	85317.39808	2710.28448
0.21595	85258.00431	2709.28448
0.21539	85198.68724	2708.28448
0.21484	85139.44653	2707.28448
0.21429	85080.28186	2706.28448
0.21374	85021.19289	2705.28448
0.21319	84962.17929	2704.28448
0.21265	84903.24075	2703.28448
0.21211	84844.37693	2702.28448
0.21156	84785.58752	2701.28448
0.21102	84726.87219	2700.28448
0.21049	84668.23063	2699.28448
0.20995	84609.66252	2698.28448
0.20941	84551.16754	2697.28448
0.20888	84492.74539	2696.28448
0.20835	84434.39575	2695.28448
0.20782	84376.11831	2694.28448
0.20729	84317.91277	2693.28448
0.20677	84259.77882	2692.28448
0.20624	84201.71616	2691.28448
0.20572	84143.72447	2690.28448
0.20520	84085.80348	2689.28448
0.20468	84027.95286	2688.28448
0.20416	83970.17234	2687.28448
0.20364	83912.46161	2686.28448
0.20313	83854.82037	2685.28448
0.20262	83797.24835	2684.28448
0.20210	83739.74524	2683.28448
0.20160	83682.31076	2682.28448
0.20109	83624.94462	2681.28448
0.20058	83567.64654	2680.28448
0.20008	83510.41623	2679.28448
0.19957	83453.25340	2678.28448
0.19907	83396.15779	2677.28448
0.19857	83339.12911	2676.28448
0.19807	83282.16709	2675.28448
0.19758	83225.27144	2674.28448
0.19708	83168.44189	2673.28448
0.19659	83111.67818	2672.28448
0.19610	83054.98002	2671.28448
0.19560	82998.34716	2670.28448
0.19512	82941.77931	2669.28448
0.19463	82885.27622	2668.28448
0.19414	82828.83762	2667.28448
0.19366	82772.46325	2666.28448
0.19318	82716.15284	2665.28448
0.19269	82659.90614	2664.28448
0.19221	82603.72287	2663.28448
0.19174	82547.60280	2662.28448
0.19126	82491.54565	2661.28448
0.19078	82435.55119	2660.28448
0.19031	82379.61914	2659.28448
0.18984	82323.74926	2658.28448
0.18937	82267.94130	2657.28448
0.18890	82212.19501	2656.28448
0.18843	82156.51014	2655.28448
0.18796	82100.88644	2654.28448
0.18750	82045.32368	2653.28448
0.18703	81989.82160	2652.28448
0.18657	81934.37997	2651.28448
0.18611	81878.99854	2650.28448
0.18565	81823.67707	2649.28448
0.18519	81768.41532	2648.28448
0.18473	81713.21306	2647.28448
0.18428	81658.07005	2646.28448
0.18383	81602.98606	2645.28448
0.18337	81547.96086	2644.28448
0.18292	81492.99420	2643.28448
0.18247	81438.08586	2642.28448
0.18202	81383.23562	2641.28448
0.18158	81328.44324	2640.28448
0.18113	81273.70849	2639.28448
0.18069	81219.03115	2638.28448
0.18024	81164.41100	2637.28448
0.17980	81109.84782	2636.28448
0.17936	81055.34137	2635.28448
0.17892	81000.89144	2634.28448
0.17848	80946.49782	2633.28448
0.17805	80892.16027	2632.28448
0.17761	80837.87859	2631.28448
0.17718	80783.65256	2630.28448
0.17675	80729.48196	2629.28448
0.17631	80675.36658	2628.28448
0.17588	80621.30621	2627.28448
0.17546	80567.30063	2626.28448
0.17503	80513.34964	2625.28448
0.17460	80459.45303	2624.28448
0.17418	80405.61059	2623.28448
0.17375	80351.82210	2622.28448
0.17333	80298.08738	2621.28448
0.17291	80244.40620	2620.28448
0.17249	80190.77837	2619.28448
0.17207	80137.20369	2618.28448
0.17165	80083.68195	2617.28448
0.17124	80030.21296	2616.28448
0.17082	79976.79651	2615.28448
0.17041	79923.43241	2614.28448
0.17000	79870.12046	2613.28448
0.16959	79816.86046	2612.28448
0.16918	79763.65222	2611.28448
0.16877	79710.49554	2610.28448
0.16836	79657.39024	2609.28448
0.16795	79604.33612	2608.28448
0.16755	79551.33298	2607.28448
0.16714	79498.38065	2606.28448
0.16674	79445.47892	2605.28448
0.16634	79392.62762	2604.28448
0.16594	79339.82656	2603.28448
0.16554	79287.07554	2602.28448
0.16514	79234.37439	2601.28448
0.16474	79181.72293	2600.28448
0.16435	79129.12096	2599.28448
0.16395	79076.56831	2598.28448
0.16356	79024.06479	2597.28448
0.16316	78971.61024	2596.28448
0.16277	78919.20446	2595.28448
0.16238	78866.84728	2594.28448
0.16199	78814.53852	2593.28448
0.16161	78762.27800	2592.28448
0.16122	78710.06556	2591.28448
0.16083	78657.90102	2590.28448
0.16045	78605.78420	2589.28448
0.16006	78553.71492	2588.28448
0.15968	78501.69303	2587.28448
0.15930	78449.71835	2586.28448
0.15892	78397.79070	2585.28448
0.15854	78345.90993	2584.28448
0.15816	78294.07586	2583.28448
0.15778	78242.28832	2582.28448
0.15741	78190.54715	2581.28448
0.15703	78138.85218	2580.28448
0.15666	78087.20325	2579.28448
0.15628	78035.60020	2578.28448
0.15591	77984.04286	2577.28448
0.15554	77932.53107	2576.28448
0.15517	77881.06467	2575.28448
0.15480	77829.64349	2574.28448
0.15443	77778.26739	2573.28448
0.15407	77726.93620	2572.28448
0.15370	77675.64976	2571.28448
0.15334	77624.40792	2570.28448
0.15297	77573.21052	2569.28448
0.15261	77522.05740	2568.28448
0.15225	77470.94841	2567.28448
0.15189	77419.88340	2566.28448
0.15153	77368.86222	2565.28448
0.15117	77317.88470	2564.28448
0.15081	77266.95071	2563.28448
0.15045	77216.06009	2562.28448
0.15010	77165.21268	2561.28448
0.14974	77114.40835	2560.28448
0.14939	77063.64694	2559.28448
0.14903	77012.92830	2558.28448
0.14868	76962.25229	2557.28448
0.14833	76911.61877	2556.28448
0.14798	76861.02758	2555.28448
0.14763	76810.47859	2554.28448
0.14728	76759.97164	2553.28448
0.14694	76709.50661	2552.28448
0.14659	76659.08333	2551.28448
0.14624	76608.70168	2550.28448
0.14590	76558.36151	2549.28448
0.14555	76508.06268	2548.28448
0.14521	76457.80506	2547.28448
0.14487	76407.58849	2546.28448
0.14453	76357.41286	2545.28448
0.14419	76307.27801	2544.28448
0.14385	76257.18381	2543.28448
0.14351	76207.13013	2542.28448
0.14317	76157.11684	2541.28448
0.14284	76107.14378	2540.28448
0.14250	76057.21085	2539.28448
0.14217	76007.31789	2538.28448
0.14183	75957.46477	2537.28448
0.14150	75907.65138	2536.28448
0.14117	75857.87757	2535.28448
0.14084	75808.14321	2534.28448
0.14051	75758.44818	2533.28448
0.14018	75708.79234	2532.28448
0.13985	75659.17557	2531.28448
0.13952	75609.59774	2530.28448
0.13920	75560.05872	2529.28448
0.13887	75510.55839	2528.28448
0.13854	75461.09661	2527.28448
0.13822	75411.67327	2526.28448
0.13790	75362.28825	2525.28448
0.13757	75312.94140	2524.28448
0.13725	75263.63262	2523.28448
0.13693	75214.36178	2522.28448
0.13661	75165.12876	2521.28448
0.13629	75115.93343	2520.28448
0.13597	75066.77568	2519.28448
0.13566	75017.65539	2518.28448
0.13534	74968.57243	2517.28448
0.13502	74919.52668	2516.28448
0.13471	74870.51804	2515.28448
0.13439	74821.54638	2514.28448
0.13408	74772.61157	2513.28448
0.13377	74723.71352	2512.28448
0.13346	74674.85209	2511.28448
