Mole fraction of liquid	Heat per mole [J]	Temperature [K]
1.00000	1.35092E5	3170.88374
0.99997	1.35086E5	3170.78812
0.99538	1.34855E5	3169.78812
0.99082	1.34625E5	3168.78812
0.98628	1.34396E5	3167.78812
0.98178	1.34169E5	3166.78812
0.97730	1.33943E5	3165.78812
0.97286	1.33718E5	3164.78812
0.96844	1.33495E5	3163.78812
0.96405	1.33272E5	3162.78812
0.95969	1.33051E5	3161.78812
0.95536	1.32831E5	3160.78812
0.95105	1.32613E5	3159.78812
0.94677	1.32395E5	3158.78812
0.94252	1.32179E5	3157.78812
0.93830	1.31964E5	3156.78812
0.93411	1.31750E5	3155.78812
0.92994	1.31538E5	3154.78812
0.92580	1.31326E5	3153.78812
0.92168	1.31116E5	3152.78812
0.91759	1.30907E5	3151.78812
0.91353	1.30698E5	3150.78812
0.90949	1.30491E5	3149.78812
0.90548	1.30286E5	3148.78812
0.90149	1.30081E5	3147.78812
0.89753	1.29877E5	3146.78812
0.89359	1.29675E5	3145.78812
0.88968	1.29473E5	3144.78812
0.88579	1.29273E5	3143.78812
0.88192	1.29073E5	3142.78812
0.87808	1.28875E5	3141.78812
0.87427	1.28677E5	3140.78812
0.87047	1.28481E5	3139.78812
0.86670	1.28286E5	3138.78812
0.86296	1.28092E5	3137.78812
0.85923	1.27898E5	3136.78812
0.85553	1.27706E5	3135.78812
0.85186	1.27515E5	3134.78812
0.84820	1.27324E5	3133.78812
0.84457	1.27135E5	3132.78812
0.84096	1.26947E5	3131.78812
0.83737	1.26759E5	3130.78812
0.83380	1.26573E5	3129.78812
0.83026	1.26387E5	3128.78812
0.82673	1.26202E5	3127.78812
0.82323	1.26019E5	3126.78812
0.81975	1.25836E5	3125.78812
0.81629	1.25654E5	3124.78812
0.81285	1.25473E5	3123.78812
0.80943	1.25293E5	3122.78812
0.80603	1.25114E5	3121.78812
0.80265	1.24935E5	3120.78812
0.79930	1.24758E5	3119.78812
0.79596	1.24581E5	3118.78812
0.79264	1.24406E5	3117.78812
0.78934	1.24231E5	3116.78812
0.78606	1.24057E5	3115.78812
0.78280	1.23883E5	3114.78812
0.77956	1.23711E5	3113.78812
0.77634	1.23540E5	3112.78812
0.77314	1.23369E5	3111.78812
0.76996	1.23199E5	3110.78812
0.76679	1.23030E5	3109.78812
0.76365	1.22861E5	3108.78812
0.76052	1.22694E5	3107.78812
0.75741	1.22527E5	3106.78812
0.75432	1.22361E5	3105.78812
0.75124	1.22196E5	3104.78812
0.74819	1.22032E5	3103.78812
0.74515	1.21868E5	3102.78812
0.74213	1.21705E5	3101.78812
0.73913	1.21543E5	3100.78812
0.73614	1.21381E5	3099.78812
0.73317	1.21221E5	3098.78812
0.73022	1.21061E5	3097.78812
0.72729	1.20901E5	3096.78812
0.72437	1.20743E5	3095.78812
0.72147	1.20585E5	3094.78812
0.71858	1.20428E5	3093.78812
0.71571	1.20272E5	3092.78812
0.71286	1.20116E5	3091.78812
0.71003	1.19961E5	3090.78812
0.70721	1.19807E5	3089.78812
0.70440	1.19653E5	3088.78812
0.70162	1.19500E5	3087.78812
0.69884	1.19348E5	3086.78812
0.69609	1.19196E5	3085.78812
0.69334	1.19045E5	3084.78812
0.69062	1.18895E5	3083.78812
0.68791	1.18745E5	3082.78812
0.68521	1.18596E5	3081.78812
0.68253	1.18448E5	3080.78812
0.67987	1.18300E5	3079.78812
0.67722	1.18153E5	3078.78812
0.67458	1.18007E5	3077.78812
0.67196	1.17861E5	3076.78812
0.66935	1.17716E5	3075.78812
0.66676	1.17571E5	3074.78812
0.66418	1.17427E5	3073.78812
0.66161	1.17284E5	3072.78812
0.65906	1.17141E5	3071.78812
0.65653	1.16999E5	3070.78812
0.65401	1.16857E5	3069.78812
0.65150	1.16716E5	3068.78812
0.64900	1.16576E5	3067.78812
0.64652	1.16436E5	3066.78812
0.64405	1.16297E5	3065.78812
0.64160	1.16158E5	3064.78812
0.63916	1.16020E5	3063.78812
0.63673	1.15882E5	3062.78812
0.63431	1.15745E5	3061.78812
0.63191	1.15609E5	3060.78812
0.62952	1.15473E5	3059.78812
0.62715	1.15337E5	3058.78812
0.62478	1.15203E5	3057.78812
0.62243	1.15068E5	3056.78812
0.62009	1.14934E5	3055.78812
0.61777	1.14801E5	3054.78812
0.61545	1.14669E5	3053.78812
0.61315	1.14536E5	3052.78812
0.61086	1.14405E5	3051.78812
0.60859	1.14273E5	3050.78812
0.60632	1.14143E5	3049.78812
0.60407	1.14013E5	3048.78812
0.60183	1.13883E5	3047.78812
0.59960	1.13754E5	3046.78812
0.59738	1.13625E5	3045.78812
0.59518	1.13497E5	3044.78812
0.59298	1.13369E5	3043.78812
0.59080	1.13242E5	3042.78812
0.58863	1.13116E5	3041.78812
0.58647	1.12989E5	3040.78812
0.58432	1.12864E5	3039.78812
0.58218	1.12738E5	3038.78812
0.58005	1.12614E5	3037.78812
0.57794	1.12489E5	3036.78812
0.57583	1.12365E5	3035.78812
0.57374	1.12242E5	3034.78812
0.57166	1.12119E5	3033.78812
0.56958	1.11997E5	3032.78812
0.56752	1.11874E5	3031.78812
0.56547	1.11753E5	3030.78812
0.56343	1.11632E5	3029.78812
0.56140	1.11511E5	3028.78812
0.55938	1.11391E5	3027.78812
0.55737	1.11271E5	3026.78812
0.55537	1.11151E5	3025.78812
0.55338	1.11032E5	3024.78812
0.55140	1.10914E5	3023.78812
0.54943	1.10796E5	3022.78812
0.54747	1.10678E5	3021.78812
0.54553	1.10561E5	3020.78812
0.54359	1.10444E5	3019.78812
0.54166	1.10327E5	3018.78812
0.53974	1.10211E5	3017.78812
0.53783	1.10095E5	3016.78812
0.53593	1.09980E5	3015.78812
0.53403	1.09865E5	3014.78812
0.53215	1.09751E5	3013.78812
0.53028	1.09637E5	3012.78812
0.52842	1.09523E5	3011.78812
0.52656	1.09410E5	3010.78812
0.52472	1.09297E5	3009.78812
0.52288	1.09184E5	3008.78812
0.52106	1.09072E5	3007.78812
0.51924	1.08960E5	3006.78812
0.51743	1.08849E5	3005.78812
0.51563	1.08738E5	3004.78812
0.51384	1.08627E5	3003.78812
0.51206	1.08517E5	3002.78812
0.51028	1.08407E5	3001.78812
0.50852	1.08298E5	3000.78812
0.50676	1.08188E5	2999.78812
0.50502	1.08080E5	2998.78812
0.50328	1.07971E5	2997.78812
0.50155	1.07863E5	2996.78812
0.49983	1.07755E5	2995.78812
0.49811	1.07648E5	2994.78812
0.49641	1.07541E5	2993.78812
0.49471	1.07434E5	2992.78812
0.49302	1.07328E5	2991.78812
0.49134	1.07222E5	2990.78812
0.48967	1.07116E5	2989.78812
0.48800	1.07010E5	2988.78812
0.48635	1.06905E5	2987.78812
0.48470	1.06801E5	2986.78812
0.48306	1.06696E5	2985.78812
0.48142	1.06592E5	2984.78812
0.47980	1.06489E5	2983.78812
0.47818	1.06385E5	2982.78812
0.47657	1.06282E5	2981.78812
0.47497	1.06179E5	2980.78812
0.47337	1.06077E5	2979.78812
0.47179	1.05975E5	2978.78812
0.47021	1.05873E5	2977.78812
0.46864	1.05771E5	2976.78812
0.46707	1.05670E5	2975.78812
0.46551	1.05569E5	2974.78812
0.46396	1.05469E5	2973.78812
0.46242	1.05368E5	2972.78812
0.46088	1.05268E5	2971.78812
0.45936	1.05169E5	2970.78812
0.45784	1.05069E5	2969.78812
0.45632	1.04970E5	2968.78812
0.45481	1.04872E5	2967.78812
0.45331	1.04773E5	2966.78812
0.45182	1.04675E5	2965.78812
0.45033	1.04577E5	2964.78812
0.44886	1.04479E5	2963.78812
0.44738	1.04382E5	2962.78812
0.44592	1.04285E5	2961.78812
0.44446	1.04188E5	2960.78812
0.44301	1.04092E5	2959.78812
0.44156	1.03995E5	2958.78812
0.44012	1.03899E5	2957.78812
0.43869	1.03804E5	2956.78812
0.43726	1.03708E5	2955.78812
0.43584	1.03613E5	2954.78812
0.43443	1.03518E5	2953.78812
0.43303	1.03424E5	2952.78812
0.43163	1.03329E5	2951.78812
0.43023	1.03235E5	2950.78812
0.42884	1.03141E5	2949.78812
0.42746	1.03048E5	2948.78812
0.42609	1.02955E5	2947.78812
0.42472	1.02861E5	2946.78812
0.42336	1.02769E5	2945.78812
0.42200	1.02676E5	2944.78812
0.42065	1.02584E5	2943.78812
0.41931	1.02492E5	2942.78812
0.41797	1.02400E5	2941.78812
0.41664	1.02309E5	2940.78812
0.41531	1.02217E5	2939.78812
0.41399	1.02126E5	2938.78812
0.41268	1.02035E5	2937.78812
0.41137	1.01945E5	2936.78812
0.41007	1.01855E5	2935.78812
0.40877	1.01765E5	2934.78812
0.40748	1.01675E5	2933.78812
0.40619	1.01585E5	2932.78812
0.40491	1.01496E5	2931.78812
0.40364	1.01407E5	2930.78812
0.40237	1.01318E5	2929.78812
0.40111	1.01229E5	2928.78812
0.39985	1.01141E5	2927.78812
0.39860	1.01052E5	2926.78812
0.39735	1.00964E5	2925.78812
0.39611	1.00877E5	2924.78812
0.39487	1.00789E5	2923.78812
0.39364	1.00702E5	2922.78812
0.39242	1.00615E5	2921.78812
0.39120	1.00528E5	2920.78812
0.38999	1.00441E5	2919.78812
0.38878	1.00355E5	2918.78812
0.38757	1.00269E5	2917.78812
0.38638	1.00183E5	2916.78812
0.38518	1.00097E5	2915.78812
0.38399	1.00011E5	2914.78812
0.38281	99925.87935	2913.78812
0.38163	99840.72929	2912.78812
0.38046	99755.78803	2911.78812
0.37929	99671.05435	2910.78812
0.37813	99586.52706	2909.78812
0.37697	99502.20494	2908.78812
0.37582	99418.08683	2907.78812
0.37467	99334.17153	2906.78812
0.37353	99250.45788	2905.78812
0.37239	99166.94472	2904.78812
0.37126	99083.63089	2903.78812
0.37013	99000.51524	2902.78812
0.36900	98917.59665	2901.78812
0.36789	98834.87398	2900.78812
0.36677	98752.34611	2899.78812
0.36566	98670.01193	2898.78812
0.36456	98587.87034	2897.78812
0.36346	98505.92023	2896.78812
0.36236	98424.16052	2895.78812
0.36127	98342.59013	2894.78812
0.36018	98261.20798	2893.78812
0.35910	98180.01301	2892.78812
0.35802	98099.00416	2891.78812
0.35695	98018.18038	2890.78812
0.35588	97937.54063	2889.78812
0.35482	97857.08386	2888.78812
0.35376	97776.80906	2887.78812
0.35270	97696.71519	2886.78812
0.35165	97616.80126	2885.78812
0.35061	97537.06624	2884.78812
0.34956	97457.50914	2883.78812
0.34853	97378.12896	2882.78812
0.34749	97298.92473	2881.78812
0.34646	97219.89545	2880.78812
0.34544	97141.04017	2879.78812
0.34442	97062.35790	2878.78812
0.34340	96983.84771	2877.78812
0.34239	96905.50862	2876.78812
0.34138	96827.33970	2875.78812
0.34038	96749.34001	2874.78812
0.33938	96671.50862	2873.78812
0.33838	96593.84460	2872.78812
0.33739	96516.34702	2871.78812
0.33640	96439.01499	2870.78812
0.33542	96361.84759	2869.78812
0.33444	96284.84392	2868.78812
0.33346	96208.00308	2867.78812
0.33249	96131.32419	2866.78812
0.33152	96054.80637	2865.78812
0.33056	95978.44875	2864.78812
0.32960	95902.25044	2863.78812
0.32864	95826.21059	2862.78812
0.32769	95750.32834	2861.78812
0.32674	95674.60284	2860.78812
0.32579	95599.03323	2859.78812
0.32485	95523.61869	2858.78812
0.32391	95448.35838	2857.78812
0.32298	95373.25146	2856.78812
0.32205	95298.29711	2855.78812
0.32112	95223.49452	2854.78812
0.32020	95148.84288	2853.78812
0.31928	95074.34137	2852.78812
0.31837	94999.98920	2851.78812
0.31746	94925.78556	2850.78812
0.31655	94851.72968	2849.78812
0.31564	94777.82076	2848.78812
0.31474	94704.05802	2847.78812
0.31384	94630.44069	2846.78812
0.31295	94556.96800	2845.78812
0.31206	94483.63919	2844.78812
0.31117	94410.45350	2843.78812
0.31029	94337.41017	2842.78812
0.30941	94264.50845	2841.78812
0.30853	94191.74760	2840.78812
0.30766	94119.12689	2839.78812
0.30679	94046.64557	2838.78812
0.30592	93974.30292	2837.78812
0.30506	93902.09821	2836.78812
0.30420	93830.03073	2835.78812
0.30335	93758.09976	2834.78812
0.30249	93686.30459	2833.78812
0.30164	93614.64451	2832.78812
0.30080	93543.11883	2831.78812
0.29995	93471.72685	2830.78812
0.29911	93400.46787	2829.78812
0.29828	93329.34122	2828.78812
0.29744	93258.34620	2827.78812
0.29661	93187.48214	2826.78812
0.29579	93116.74837	2825.78812
0.29496	93046.14422	2824.78812
0.29414	92975.66903	2823.78812
0.29332	92905.32212	2822.78812
0.29251	92835.10286	2821.78812
0.29170	92765.01058	2820.78812
0.29089	92695.04465	2819.78812
0.29008	92625.20441	2818.78812
0.28928	92555.48923	2817.78812
0.28848	92485.89847	2816.78812
0.28769	92416.43150	2815.78812
0.28689	92347.08771	2814.78812
0.28610	92277.86645	2813.78812
0.28532	92208.76713	2812.78812
0.28453	92139.78911	2811.78812
0.28375	92070.93180	2810.78812
0.28297	92002.19459	2809.78812
0.28220	91933.57686	2808.78812
0.28142	91865.07804	2807.78812
0.28065	91796.69751	2806.78812
0.27989	91728.43469	2805.78812
0.27912	91660.28900	2804.78812
0.27836	91592.25984	2803.78812
0.27760	91524.34664	2802.78812
0.27685	91456.54883	2801.78812
0.27610	91388.86583	2800.78812
0.27535	91321.29707	2799.78812
0.27460	91253.84200	2798.78812
0.27385	91186.50004	2797.78812
0.27311	91119.27064	2796.78812
0.27237	91052.15324	2795.78812
0.27164	90985.14730	2794.78812
0.27090	90918.25227	2793.78812
0.27017	90851.46761	2792.78812
0.26945	90784.79277	2791.78812
0.26872	90718.22722	2790.78812
0.26800	90651.77042	2789.78812
0.26728	90585.42185	2788.78812
0.26656	90519.18098	2787.78812
0.26584	90453.04729	2786.78812
0.26513	90387.02025	2785.78812
0.26442	90321.09934	2784.78812
0.26372	90255.28407	2783.78812
0.26301	90189.57391	2782.78812
0.26231	90123.96836	2781.78812
0.26161	90058.46691	2780.78812
0.26091	89993.06907	2779.78812
0.26022	89927.77434	2778.78812
0.25953	89862.58221	2777.78812
0.25884	89797.49221	2776.78812
0.25815	89732.50385	2775.78812
0.25747	89667.61663	2774.78812
0.25678	89602.83007	2773.78812
0.25610	89538.14371	2772.78812
0.25543	89473.55705	2771.78812
0.25475	89409.06963	2770.78812
0.25408	89344.68098	2769.78812
0.25341	89280.39063	2768.78812
0.25274	89216.19812	2767.78812
0.25208	89152.10298	2766.78812
0.25141	89088.10475	2765.78812
0.25075	89024.20299	2764.78812
0.25010	88960.39723	2763.78812
0.24944	88896.68703	2762.78812
0.24879	88833.07193	2761.78812
0.24814	88769.55150	2760.78812
0.24749	88706.12530	2759.78812
0.24684	88642.79287	2758.78812
0.24620	88579.55379	2757.78812
0.24555	88516.40763	2756.78812
0.24491	88453.35394	2755.78812
0.24428	88390.39231	2754.78812
0.24364	88327.52230	2753.78812
0.24301	88264.74350	2752.78812
0.24238	88202.05548	2751.78812
0.24175	88139.45782	2750.78812
0.24112	88076.95012	2749.78812
0.24050	88014.53194	2748.78812
0.23988	87952.20289	2747.78812
0.23926	87889.96256	2746.78812
0.23864	87827.81054	2745.78812
0.23802	87765.74643	2744.78812
0.23741	87703.76982	2743.78812
0.23680	87641.88032	2742.78812
0.23619	87580.07753	2741.78812
0.23558	87518.36106	2740.78812
0.23498	87456.73052	2739.78812
0.23437	87395.18552	2738.78812
0.23377	87333.72567	2737.78812
0.23317	87272.35059	2736.78812
0.23258	87211.05989	2735.78812
0.23198	87149.85320	2734.78812
0.23139	87088.73014	2733.78812
0.23080	87027.69033	2732.78812
0.23021	86966.73340	2731.78812
0.22962	86905.85898	2730.78812
0.22904	86845.06671	2729.78812
0.22845	86784.35621	2728.78812
0.22787	86723.72712	2727.78812
0.22729	86663.17909	2726.78812
0.22672	86602.71174	2725.78812
0.22614	86542.32473	2724.78812
0.22557	86482.01769	2723.78812
0.22500	86421.79028	2722.78812
0.22443	86361.64214	2721.78812
0.22386	86301.57292	2720.78812
0.22329	86241.58229	2719.78812
0.22273	86181.66988	2718.78812
0.22217	86121.83536	2717.78812
0.22161	86062.07839	2716.78812
0.22105	86002.39862	2715.78812
0.22050	85942.79573	2714.78812
0.21994	85883.26938	2713.78812
0.21939	85823.81923	2712.78812
0.21884	85764.44495	2711.78812
0.21829	85705.14621	2710.78812
0.21774	85645.92269	2709.78812
0.21720	85586.77406	2708.78812
0.21666	85527.70000	2707.78812
0.21611	85468.70019	2706.78812
0.21557	85409.77430	2705.78812
0.21504	85350.92202	2704.78812
0.21450	85292.14303	2703.78812
0.21397	85233.43702	2702.78812
0.21343	85174.80368	2701.78812
0.21290	85116.24269	2700.78812
0.21237	85057.75375	2699.78812
0.21185	84999.33656	2698.78812
0.21132	84940.99079	2697.78812
0.21080	84882.71616	2696.78812
0.21027	84824.51236	2695.78812
0.20975	84766.37909	2694.78812
0.20923	84708.31605	2693.78812
0.20872	84650.32295	2692.78812
0.20820	84592.39949	2691.78812
0.20769	84534.54538	2690.78812
0.20718	84476.76033	2689.78812
0.20666	84419.04405	2688.78812
0.20616	84361.39624	2687.78812
0.20565	84303.81663	2686.78812
0.20514	84246.30493	2685.78812
0.20464	84188.86085	2684.78812
0.20414	84131.48412	2683.78812
0.20364	84074.17446	2682.78812
0.20314	84016.93158	2681.78812
0.20264	83959.75521	2680.78812
0.20214	83902.64508	2679.78812
0.20165	83845.60091	2678.78812
0.20116	83788.62243	2677.78812
0.20066	83731.70936	2676.78812
0.20017	83674.86145	2675.78812
0.19969	83618.07843	2674.78812
0.19920	83561.36002	2673.78812
0.19871	83504.70596	2672.78812
0.19823	83448.11600	2671.78812
0.19775	83391.58986	2670.78812
0.19727	83335.12729	2669.78812
0.19679	83278.72804	2668.78812
0.19631	83222.39184	2667.78812
0.19584	83166.11844	2666.78812
0.19536	83109.90758	2665.78812
0.19489	83053.75902	2664.78812
0.19442	82997.67249	2663.78812
0.19395	82941.64776	2662.78812
0.19348	82885.68458	2661.78812
0.19301	82829.78268	2660.78812
0.19255	82773.94184	2659.78812
0.19208	82718.16181	2658.78812
0.19162	82662.44234	2657.78812
0.19116	82606.78319	2656.78812
0.19070	82551.18413	2655.78812
0.19024	82495.64491	2654.78812
0.18978	82440.16529	2653.78812
0.18933	82384.74505	2652.78812
0.18887	82329.38394	2651.78812
0.18842	82274.08173	2650.78812
0.18797	82218.83819	2649.78812
0.18752	82163.65309	2648.78812
0.18707	82108.52620	2647.78812
0.18662	82053.45729	2646.78812
0.18618	81998.44613	2645.78812
0.18573	81943.49250	2644.78812
0.18529	81888.59618	2643.78812
0.18485	81833.75693	2642.78812
0.18441	81778.97454	2641.78812
0.18397	81724.24879	2640.78812
0.18353	81669.57946	2639.78812
0.18309	81614.96632	2638.78812
0.18266	81560.40917	2637.78812
0.18222	81505.90778	2636.78812
0.18179	81451.46194	2635.78812
0.18136	81397.07144	2634.78812
0.18093	81342.73606	2633.78812
0.18050	81288.45560	2632.78812
0.18008	81234.22984	2631.78812
0.17965	81180.05857	2630.78812
0.17922	81125.94159	2629.78812
0.17880	81071.87869	2628.78812
0.17838	81017.86966	2627.78812
0.17796	80963.91430	2626.78812
0.17754	80910.01240	2625.78812
0.17712	80856.16377	2624.78812
0.17670	80802.36820	2623.78812
0.17629	80748.62549	2622.78812
0.17587	80694.93544	2621.78812
0.17546	80641.29786	2620.78812
0.17505	80587.71255	2619.78812
0.17464	80534.17931	2618.78812
0.17423	80480.69794	2617.78812
0.17382	80427.26826	2616.78812
0.17341	80373.89008	2615.78812
0.17300	80320.56319	2614.78812
0.17260	80267.28741	2613.78812
0.17219	80214.06254	2612.78812
0.17179	80160.88841	2611.78812
0.17139	80107.76483	2610.78812
0.17099	80054.69159	2609.78812
0.17059	80001.66853	2608.78812
0.17019	79948.69546	2607.78812
0.16980	79895.77219	2606.78812
0.16940	79842.89854	2605.78812
0.16901	79790.07433	2604.78812
0.16861	79737.29938	2603.78812
0.16822	79684.57351	2602.78812
0.16783	79631.89654	2601.78812
0.16744	79579.26829	2600.78812
0.16705	79526.68858	2599.78812
0.16666	79474.15725	2598.78812
0.16628	79421.67411	2597.78812
0.16589	79369.23899	2596.78812
0.16551	79316.85172	2595.78812
0.16512	79264.51213	2594.78812
0.16474	79212.22004	2593.78812
0.16436	79159.97528	2592.78812
0.16398	79107.77769	2591.78812
0.16360	79055.62710	2590.78812
0.16322	79003.52334	2589.78812
0.16285	78951.46623	2588.78812
0.16247	78899.45563	2587.78812
0.16210	78847.49135	2586.78812
0.16172	78795.57325	2585.78812
0.16135	78743.70115	2584.78812
0.16098	78691.87489	2583.78812
0.16061	78640.09431	2582.78812
0.16024	78588.35925	2581.78812
0.15987	78536.66955	2580.78812
0.15951	78485.02505	2579.78812
0.15914	78433.42559	2578.78812
0.15877	78381.87102	2577.78812
0.15841	78330.36118	2576.78812
0.15805	78278.89591	2575.78812
0.15769	78227.47506	2574.78812
0.15732	78176.09847	2573.78812
0.15696	78124.76600	2572.78812
0.15661	78073.47749	2571.78812
0.15625	78022.23278	2570.78812
0.15589	77971.03173	2569.78812
0.15553	77919.87418	2568.78812
0.15518	77868.75999	2567.78812
0.15483	77817.68901	2566.78812
0.15447	77766.66109	2565.78812
0.15412	77715.67609	2564.78812
0.15377	77664.73385	2563.78812
0.15342	77613.83424	2562.78812
0.15307	77562.97710	2561.78812
0.15272	77512.16230	2560.78812
0.15238	77461.38968	2559.78812
0.15203	77410.65912	2558.78812
0.15168	77359.97046	2557.78812
0.15134	77309.32356	2556.78812
0.15100	77258.71829	2555.78812
0.15065	77208.15451	2554.78812
0.15031	77157.63207	2553.78812
0.14997	77107.15084	2552.78812
0.14963	77056.71068	2551.78812
0.14929	77006.31146	2550.78812
0.14895	76955.95304	2549.78812
0.14862	76905.63527	2548.78812
0.14828	76855.35804	2547.78812
0.14795	76805.12120	2546.78812
0.14761	76754.92462	2545.78812
0.14728	76704.76818	2544.78812
0.14695	76654.65173	2543.78812
0.14662	76604.57514	2542.78812
0.14628	76554.53829	2541.78812
0.14596	76504.54105	2540.78812
0.14563	76454.58328	2539.78812
0.14530	76404.66486	2538.78812
0.14497	76354.78566	2537.78812
0.14465	76304.94555	2536.78812
0.14432	76255.14441	2535.78812
0.14400	76205.38210	2534.78812
0.14367	76155.65852	2533.78812
0.14335	76105.97352	2532.78812
0.14303	76056.32699	2531.78812
0.14271	76006.71880	2530.78812
0.14239	75957.14883	2529.78812
0.14207	75907.61696	2528.78812
0.14175	75858.12307	2527.78812
0.14143	75808.66703	2526.78812
0.14111	75759.24873	2525.78812
0.14080	75709.86804	2524.78812
0.14048	75660.52485	2523.78812
0.14017	75611.21904	2522.78812
0.13985	75561.95048	2521.78812
0.13954	75512.71907	2520.78812
0.13923	75463.52469	2519.78812
0.13892	75414.36721	2518.78812
0.13861	75365.24653	2517.78812
0.13830	75316.16253	2516.78812
0.13799	75267.11509	2515.78812
0.13768	75218.10410	2514.78812
0.13738	75169.12945	2513.78812
