Mole fraction of liquid	Heat per mole [J]	Temperature [K]
1.00000	1.38857E5	3235.70029
0.99997	1.38851E5	3235.60466
0.99470	1.38585E5	3234.60466
0.98948	1.38321E5	3233.60466
0.98429	1.38058E5	3232.60466
0.97914	1.37797E5	3231.60466
0.97403	1.37538E5	3230.60466
0.96895	1.37281E5	3229.60466
0.96392	1.37025E5	3228.60466
0.95892	1.36771E5	3227.60466
0.95396	1.36519E5	3226.60466
0.94904	1.36268E5	3225.60466
0.94415	1.36019E5	3224.60466
0.93929	1.35771E5	3223.60466
0.93448	1.35525E5	3222.60466
0.92970	1.35281E5	3221.60466
0.92495	1.35038E5	3220.60466
0.92024	1.34797E5	3219.60466
0.91556	1.34557E5	3218.60466
0.91091	1.34319E5	3217.60466
0.90630	1.34082E5	3216.60466
0.90173	1.33847E5	3215.60466
0.89718	1.33613E5	3214.60466
0.89267	1.33381E5	3213.60466
0.88819	1.33150E5	3212.60466
0.88374	1.32921E5	3211.60466
0.87933	1.32693E5	3210.60466
0.87494	1.32466E5	3209.60466
0.87059	1.32241E5	3208.60466
0.86627	1.32017E5	3207.60466
0.86198	1.31794E5	3206.60466
0.85772	1.31573E5	3205.60466
0.85348	1.31353E5	3204.60466
0.84928	1.31135E5	3203.60466
0.84511	1.30918E5	3202.60466
0.84097	1.30702E5	3201.60466
0.83685	1.30487E5	3200.60466
0.83277	1.30274E5	3199.60466
0.82871	1.30062E5	3198.60466
0.82468	1.29851E5	3197.60466
0.82068	1.29641E5	3196.60466
0.81671	1.29433E5	3195.60466
0.81277	1.29226E5	3194.60466
0.80885	1.29020E5	3193.60466
0.80496	1.28815E5	3192.60466
0.80109	1.28612E5	3191.60466
0.79725	1.28409E5	3190.60466
0.79344	1.28208E5	3189.60466
0.78965	1.28008E5	3188.60466
0.78589	1.27809E5	3187.60466
0.78216	1.27611E5	3186.60466
0.77845	1.27414E5	3185.60466
0.77476	1.27219E5	3184.60466
0.77111	1.27024E5	3183.60466
0.76747	1.26831E5	3182.60466
0.76386	1.26638E5	3181.60466
0.76027	1.26447E5	3180.60466
0.75671	1.26257E5	3179.60466
0.75317	1.26068E5	3178.60466
0.74966	1.25880E5	3177.60466
0.74617	1.25692E5	3176.60466
0.74270	1.25506E5	3175.60466
0.73925	1.25321E5	3174.60466
0.73583	1.25137E5	3173.60466
0.73243	1.24954E5	3172.60466
0.72905	1.24772E5	3171.60466
0.72570	1.24591E5	3170.60466
0.72236	1.24411E5	3169.60466
0.71905	1.24232E5	3168.60466
0.71576	1.24053E5	3167.60466
0.71249	1.23876E5	3166.60466
0.70924	1.23700E5	3165.60466
0.70602	1.23524E5	3164.60466
0.70281	1.23350E5	3163.60466
0.69963	1.23176E5	3162.60466
0.69646	1.23004E5	3161.60466
0.69332	1.22832E5	3160.60466
0.69020	1.22661E5	3159.60466
0.68709	1.22491E5	3158.60466
0.68401	1.22322E5	3157.60466
0.68095	1.22153E5	3156.60466
0.67790	1.21986E5	3155.60466
0.67488	1.21819E5	3154.60466
0.67187	1.21654E5	3153.60466
0.66889	1.21489E5	3152.60466
0.66592	1.21325E5	3151.60466
0.66297	1.21161E5	3150.60466
0.66004	1.20999E5	3149.60466
0.65713	1.20837E5	3148.60466
0.65423	1.20676E5	3147.60466
0.65136	1.20516E5	3146.60466
0.64850	1.20357E5	3145.60466
0.64566	1.20199E5	3144.60466
0.64284	1.20041E5	3143.60466
0.64004	1.19884E5	3142.60466
0.63725	1.19728E5	3141.60466
0.63448	1.19572E5	3140.60466
0.63173	1.19418E5	3139.60466
0.62899	1.19264E5	3138.60466
0.62627	1.19110E5	3137.60466
0.62357	1.18958E5	3136.60466
0.62089	1.18806E5	3135.60466
0.61822	1.18655E5	3134.60466
0.61556	1.18505E5	3133.60466
0.61293	1.18355E5	3132.60466
0.61031	1.18206E5	3131.60466
0.60770	1.18058E5	3130.60466
0.60512	1.17911E5	3129.60466
0.60254	1.17764E5	3128.60466
0.59999	1.17618E5	3127.60466
0.59744	1.17472E5	3126.60466
0.59492	1.17327E5	3125.60466
0.59241	1.17183E5	3124.60466
0.58991	1.17040E5	3123.60466
0.58743	1.16897E5	3122.60466
0.58496	1.16754E5	3121.60466
0.58251	1.16613E5	3120.60466
0.58008	1.16472E5	3119.60466
0.57765	1.16332E5	3118.60466
0.57525	1.16192E5	3117.60466
0.57285	1.16053E5	3116.60466
0.57047	1.15914E5	3115.60466
0.56811	1.15777E5	3114.60466
0.56576	1.15639E5	3113.60466
0.56342	1.15503E5	3112.60466
0.56109	1.15367E5	3111.60466
0.55878	1.15231E5	3110.60466
0.55649	1.15096E5	3109.60466
0.55420	1.14962E5	3108.60466
0.55193	1.14828E5	3107.60466
0.54968	1.14695E5	3106.60466
0.54743	1.14563E5	3105.60466
0.54520	1.14431E5	3104.60466
0.54299	1.14299E5	3103.60466
0.54078	1.14168E5	3102.60466
0.53859	1.14038E5	3101.60466
0.53641	1.13908E5	3100.60466
0.53424	1.13779E5	3099.60466
0.53209	1.13650E5	3098.60466
0.52995	1.13522E5	3097.60466
0.52782	1.13394E5	3096.60466
0.52570	1.13267E5	3095.60466
0.52359	1.13140E5	3094.60466
0.52150	1.13014E5	3093.60466
0.51942	1.12889E5	3092.60466
0.51735	1.12764E5	3091.60466
0.51529	1.12639E5	3090.60466
0.51324	1.12515E5	3089.60466
0.51121	1.12392E5	3088.60466
0.50918	1.12268E5	3087.60466
0.50717	1.12146E5	3086.60466
0.50517	1.12024E5	3085.60466
0.50318	1.11902E5	3084.60466
0.50120	1.11781E5	3083.60466
0.49924	1.11660E5	3082.60466
0.49728	1.11540E5	3081.60466
0.49533	1.11420E5	3080.60466
0.49340	1.11301E5	3079.60466
0.49148	1.11182E5	3078.60466
0.48956	1.11064E5	3077.60466
0.48766	1.10946E5	3076.60466
0.48577	1.10829E5	3075.60466
0.48389	1.10712E5	3074.60466
0.48201	1.10595E5	3073.60466
0.48015	1.10479E5	3072.60466
0.47830	1.10363E5	3071.60466
0.47646	1.10248E5	3070.60466
0.47463	1.10133E5	3069.60466
0.47281	1.10019E5	3068.60466
0.47100	1.09905E5	3067.60466
0.46920	1.09792E5	3066.60466
0.46741	1.09679E5	3065.60466
0.46562	1.09566E5	3064.60466
0.46385	1.09454E5	3063.60466
0.46209	1.09342E5	3062.60466
0.46034	1.09230E5	3061.60466
0.45859	1.09119E5	3060.60466
0.45686	1.09009E5	3059.60466
0.45513	1.08898E5	3058.60466
0.45342	1.08789E5	3057.60466
0.45171	1.08679E5	3056.60466
0.45002	1.08570E5	3055.60466
0.44833	1.08461E5	3054.60466
0.44665	1.08353E5	3053.60466
0.44498	1.08245E5	3052.60466
0.44332	1.08138E5	3051.60466
0.44166	1.08030E5	3050.60466
0.44002	1.07924E5	3049.60466
0.43838	1.07817E5	3048.60466
0.43676	1.07711E5	3047.60466
0.43514	1.07605E5	3046.60466
0.43353	1.07500E5	3045.60466
0.43193	1.07395E5	3044.60466
0.43034	1.07291E5	3043.60466
0.42875	1.07186E5	3042.60466
0.42718	1.07082E5	3041.60466
0.42561	1.06979E5	3040.60466
0.42405	1.06876E5	3039.60466
0.42250	1.06773E5	3038.60466
0.42095	1.06670E5	3037.60466
0.41942	1.06568E5	3036.60466
0.41789	1.06466E5	3035.60466
0.41637	1.06365E5	3034.60466
0.41486	1.06264E5	3033.60466
0.41335	1.06163E5	3032.60466
0.41186	1.06062E5	3031.60466
0.41037	1.05962E5	3030.60466
0.40889	1.05862E5	3029.60466
0.40741	1.05763E5	3028.60466
0.40595	1.05663E5	3027.60466
0.40449	1.05565E5	3026.60466
0.40304	1.05466E5	3025.60466
0.40159	1.05368E5	3024.60466
0.40016	1.05270E5	3023.60466
0.39873	1.05172E5	3022.60466
0.39730	1.05075E5	3021.60466
0.39589	1.04978E5	3020.60466
0.39448	1.04881E5	3019.60466
0.39308	1.04785E5	3018.60466
0.39169	1.04688E5	3017.60466
0.39030	1.04593E5	3016.60466
0.38892	1.04497E5	3015.60466
0.38755	1.04402E5	3014.60466
0.38618	1.04307E5	3013.60466
0.38482	1.04212E5	3012.60466
0.38347	1.04118E5	3011.60466
0.38212	1.04024E5	3010.60466
0.38079	1.03930E5	3009.60466
0.37945	1.03836E5	3008.60466
0.37813	1.03743E5	3007.60466
0.37681	1.03650E5	3006.60466
0.37550	1.03558E5	3005.60466
0.37419	1.03465E5	3004.60466
0.37289	1.03373E5	3003.60466
0.37160	1.03281E5	3002.60466
0.37031	1.03189E5	3001.60466
0.36903	1.03098E5	3000.60466
0.36775	1.03007E5	2999.60466
0.36648	1.02916E5	2998.60466
0.36522	1.02826E5	2997.60466
0.36397	1.02735E5	2996.60466
0.36272	1.02645E5	2995.60466
0.36147	1.02555E5	2994.60466
0.36023	1.02466E5	2993.60466
0.35900	1.02377E5	2992.60466
0.35778	1.02288E5	2991.60466
0.35656	1.02199E5	2990.60466
0.35534	1.02110E5	2989.60466
0.35413	1.02022E5	2988.60466
0.35293	1.01934E5	2987.60466
0.35173	1.01846E5	2986.60466
0.35054	1.01759E5	2985.60466
0.34936	1.01671E5	2984.60466
0.34818	1.01584E5	2983.60466
0.34700	1.01497E5	2982.60466
0.34583	1.01411E5	2981.60466
0.34467	1.01325E5	2980.60466
0.34351	1.01238E5	2979.60466
0.34236	1.01152E5	2978.60466
0.34122	1.01067E5	2977.60466
0.34007	1.00981E5	2976.60466
0.33894	1.00896E5	2975.60466
0.33781	1.00811E5	2974.60466
0.33668	1.00726E5	2973.60466
0.33556	1.00642E5	2972.60466
0.33445	1.00558E5	2971.60466
0.33334	1.00473E5	2970.60466
0.33223	1.00390E5	2969.60466
0.33113	1.00306E5	2968.60466
0.33004	1.00222E5	2967.60466
0.32895	1.00139E5	2966.60466
0.32787	1.00056E5	2965.60466
0.32679	99973.31275	2964.60466
0.32571	99890.70880	2963.60466
0.32465	99808.31389	2962.60466
0.32358	99726.12673	2961.60466
0.32252	99644.14604	2960.60466
0.32147	99562.37053	2959.60466
0.32042	99480.79896	2958.60466
0.31937	99399.43006	2957.60466
0.31833	99318.26259	2956.60466
0.31730	99237.29531	2955.60466
0.31627	99156.52700	2954.60466
0.31524	99075.95645	2953.60466
0.31422	98995.58244	2952.60466
0.31321	98915.40379	2951.60466
0.31219	98835.41929	2950.60466
0.31119	98755.62778	2949.60466
0.31018	98676.02808	2948.60466
0.30919	98596.61903	2947.60466
0.30819	98517.39948	2946.60466
0.30720	98438.36829	2945.60466
0.30622	98359.52432	2944.60466
0.30524	98280.86644	2943.60466
0.30426	98202.39354	2942.60466
0.30329	98124.10450	2941.60466
0.30232	98045.99823	2940.60466
0.30136	97968.07363	2939.60466
0.30040	97890.32962	2938.60466
0.29945	97812.76512	2937.60466
0.29850	97735.37906	2936.60466
0.29755	97658.17039	2935.60466
0.29661	97581.13805	2934.60466
0.29567	97504.28100	2933.60466
0.29474	97427.59819	2932.60466
0.29381	97351.08860	2931.60466
0.29289	97274.75121	2930.60466
0.29197	97198.58501	2929.60466
0.29105	97122.58899	2928.60466
0.29014	97046.76214	2927.60466
0.28923	96971.10349	2926.60466
0.28832	96895.61204	2925.60466
0.28742	96820.28681	2924.60466
0.28653	96745.12685	2923.60466
0.28563	96670.13118	2922.60466
0.28474	96595.29885	2921.60466
0.28386	96520.62891	2920.60466
0.28298	96446.12042	2919.60466
0.28210	96371.77245	2918.60466
0.28122	96297.58406	2917.60466
0.28035	96223.55435	2916.60466
0.27949	96149.68238	2915.60466
0.27863	96075.96727	2914.60466
0.27777	96002.40809	2913.60466
0.27691	95929.00397	2912.60466
0.27606	95855.75401	2911.60466
0.27521	95782.65733	2910.60466
0.27437	95709.71306	2909.60466
0.27353	95636.92033	2908.60466
0.27269	95564.27827	2907.60466
0.27186	95491.78603	2906.60466
0.27103	95419.44276	2905.60466
0.27020	95347.24761	2904.60466
0.26938	95275.19976	2903.60466
0.26856	95203.29836	2902.60466
0.26774	95131.54259	2901.60466
0.26693	95059.93163	2900.60466
0.26612	94988.46466	2899.60466
0.26532	94917.14089	2898.60466
0.26451	94845.95950	2897.60466
0.26372	94774.91970	2896.60466
0.26292	94704.02069	2895.60466
0.26213	94633.26171	2894.60466
0.26134	94562.64195	2893.60466
0.26055	94492.16065	2892.60466
0.25977	94421.81705	2891.60466
0.25899	94351.61037	2890.60466
0.25822	94281.53986	2889.60466
0.25744	94211.60476	2888.60466
0.25667	94141.80434	2887.60466
0.25591	94072.13784	2886.60466
0.25515	94002.60453	2885.60466
0.25439	93933.20369	2884.60466
0.25363	93863.93457	2883.60466
0.25288	93794.79647	2882.60466
0.25213	93725.78866	2881.60466
0.25138	93656.91044	2880.60466
0.25063	93588.16109	2879.60466
0.24989	93519.53992	2878.60466
0.24915	93451.04623	2877.60466
0.24842	93382.67933	2876.60466
0.24769	93314.43853	2875.60466
0.24696	93246.32315	2874.60466
0.24623	93178.33251	2873.60466
0.24551	93110.46594	2872.60466
0.24479	93042.72277	2871.60466
0.24407	92975.10234	2870.60466
0.24336	92907.60400	2869.60466
0.24265	92840.22707	2868.60466
0.24194	92772.97093	2867.60466
0.24123	92705.83491	2866.60466
0.24053	92638.81839	2865.60466
0.23983	92571.92072	2864.60466
0.23913	92505.14127	2863.60466
0.23844	92438.47941	2862.60466
0.23774	92371.93453	2861.60466
0.23706	92305.50600	2860.60466
0.23637	92239.19320	2859.60466
0.23569	92172.99554	2858.60466
0.23501	92106.91239	2857.60466
0.23433	92040.94316	2856.60466
0.23365	91975.08725	2855.60466
0.23298	91909.34406	2854.60466
0.23231	91843.71301	2853.60466
0.23164	91778.19351	2852.60466
0.23098	91712.78497	2851.60466
0.23032	91647.48683	2850.60466
0.22966	91582.29849	2849.60466
0.22900	91517.21940	2848.60466
0.22835	91452.24899	2847.60466
0.22769	91387.38669	2846.60466
0.22704	91322.63195	2845.60466
0.22640	91257.98421	2844.60466
0.22575	91193.44291	2843.60466
0.22511	91129.00752	2842.60466
0.22447	91064.67748	2841.60466
0.22384	91000.45226	2840.60466
0.22320	90936.33132	2839.60466
0.22257	90872.31412	2838.60466
0.22194	90808.40014	2837.60466
0.22132	90744.58885	2836.60466
0.22069	90680.87972	2835.60466
0.22007	90617.27224	2834.60466
0.21945	90553.76590	2833.60466
0.21883	90490.36017	2832.60466
0.21822	90427.05455	2831.60466
0.21761	90363.84854	2830.60466
0.21700	90300.74163	2829.60466
0.21639	90237.73332	2828.60466
0.21578	90174.82312	2827.60466
0.21518	90112.01053	2826.60466
0.21458	90049.29507	2825.60466
0.21398	89986.67625	2824.60466
0.21339	89924.15359	2823.60466
0.21279	89861.72660	2822.60466
0.21220	89799.39482	2821.60466
0.21161	89737.15776	2820.60466
0.21103	89675.01495	2819.60466
0.21044	89612.96594	2818.60466
0.20986	89551.01025	2817.60466
0.20928	89489.14743	2816.60466
0.20870	89427.37701	2815.60466
0.20812	89365.69855	2814.60466
0.20755	89304.11158	2813.60466
0.20698	89242.61566	2812.60466
0.20641	89181.21035	2811.60466
0.20584	89119.89519	2810.60466
0.20528	89058.66975	2809.60466
0.20471	88997.53360	2808.60466
0.20415	88936.48629	2807.60466
0.20359	88875.52739	2806.60466
0.20304	88814.65648	2805.60466
0.20248	88753.87313	2804.60466
0.20193	88693.17691	2803.60466
0.20138	88632.56740	2802.60466
0.20083	88572.04419	2801.60466
0.20028	88511.60685	2800.60466
0.19974	88451.25498	2799.60466
0.19920	88390.98817	2798.60466
0.19866	88330.80600	2797.60466
0.19812	88270.70808	2796.60466
0.19758	88210.69399	2795.60466
0.19705	88150.76335	2794.60466
0.19651	88090.91574	2793.60466
0.19598	88031.15079	2792.60466
0.19546	87971.46808	2791.60466
0.19493	87911.86724	2790.60466
0.19440	87852.34788	2789.60466
0.19388	87792.90960	2788.60466
0.19336	87733.55204	2787.60466
0.19284	87674.27480	2786.60466
0.19232	87615.07751	2785.60466
0.19181	87555.95980	2784.60466
0.19130	87496.92129	2783.60466
0.19078	87437.96161	2782.60466
0.19027	87379.08039	2781.60466
0.18977	87320.27727	2780.60466
0.18926	87261.55188	2779.60466
0.18876	87202.90386	2778.60466
0.18825	87144.33285	2777.60466
0.18775	87085.83850	2776.60466
0.18725	87027.42044	2775.60466
0.18676	86969.07834	2774.60466
0.18626	86910.81183	2773.60466
0.18577	86852.62056	2772.60466
0.18528	86794.50420	2771.60466
0.18479	86736.46239	2770.60466
0.18430	86678.49481	2769.60466
0.18381	86620.60109	2768.60466
0.18333	86562.78092	2767.60466
0.18284	86505.03395	2766.60466
0.18236	86447.35985	2765.60466
0.18188	86389.75829	2764.60466
0.18141	86332.22893	2763.60466
0.18093	86274.77146	2762.60466
0.18045	86217.38555	2761.60466
0.17998	86160.07086	2760.60466
0.17951	86102.82709	2759.60466
0.17904	86045.65391	2758.60466
0.17857	85988.55101	2757.60466
0.17811	85931.51807	2756.60466
0.17764	85874.55477	2755.60466
0.17718	85817.66080	2754.60466
0.17672	85760.83586	2753.60466
0.17626	85704.07964	2752.60466
0.17580	85647.39183	2751.60466
0.17534	85590.77212	2750.60466
0.17489	85534.22022	2749.60466
0.17444	85477.73583	2748.60466
0.17398	85421.31864	2747.60466
0.17353	85364.96835	2746.60466
0.17308	85308.68468	2745.60466
0.17264	85252.46734	2744.60466
0.17219	85196.31602	2743.60466
0.17175	85140.23044	2742.60466
0.17131	85084.21031	2741.60466
0.17086	85028.25535	2740.60466
0.17043	84972.36527	2739.60466
0.16999	84916.53979	2738.60466
0.16955	84860.77862	2737.60466
0.16912	84805.08150	2736.60466
0.16868	84749.44813	2735.60466
0.16825	84693.87825	2734.60466
0.16782	84638.37157	2733.60466
0.16739	84582.92784	2732.60466
0.16696	84527.54677	2731.60466
0.16654	84472.22810	2730.60466
0.16611	84416.97155	2729.60466
0.16569	84361.77687	2728.60466
0.16527	84306.64379	2727.60466
0.16485	84251.57204	2726.60466
0.16443	84196.56136	2725.60466
0.16401	84141.61150	2724.60466
0.16359	84086.72219	2723.60466
0.16318	84031.89318	2722.60466
0.16277	83977.12422	2721.60466
0.16235	83922.41504	2720.60466
0.16194	83867.76540	2719.60466
0.16153	83813.17504	2718.60466
0.16113	83758.64372	2717.60466
0.16072	83704.17118	2716.60466
0.16031	83649.75719	2715.60466
0.15991	83595.40150	2714.60466
0.15951	83541.10385	2713.60466
0.15911	83486.86402	2712.60466
0.15871	83432.68176	2711.60466
0.15831	83378.55683	2710.60466
0.15791	83324.48899	2709.60466
0.15752	83270.47801	2708.60466
0.15712	83216.52365	2707.60466
0.15673	83162.62567	2706.60466
0.15634	83108.78385	2705.60466
0.15595	83054.99796	2704.60466
0.15556	83001.26775	2703.60466
0.15517	82947.59302	2702.60466
0.15478	82893.97352	2701.60466
0.15440	82840.40903	2700.60466
0.15401	82786.89933	2699.60466
0.15363	82733.44420	2698.60466
0.15325	82680.04341	2697.60466
0.15287	82626.69675	2696.60466
0.15249	82573.40399	2695.60466
0.15211	82520.16491	2694.60466
0.15173	82466.97930	2693.60466
0.15136	82413.84694	2692.60466
0.15098	82360.76763	2691.60466
0.15061	82307.74114	2690.60466
0.15024	82254.76726	2689.60466
0.14987	82201.84579	2688.60466
0.14950	82148.97651	2687.60466
0.14913	82096.15922	2686.60466
0.14876	82043.39370	2685.60466
0.14839	81990.67976	2684.60466
0.14803	81938.01719	2683.60466
0.14767	81885.40578	2682.60466
0.14730	81832.84534	2681.60466
0.14694	81780.33565	2680.60466
0.14658	81727.87653	2679.60466
0.14622	81675.46777	2678.60466
0.14587	81623.10918	2677.60466
0.14551	81570.80056	2676.60466
0.14515	81518.54170	2675.60466
0.14480	81466.33243	2674.60466
0.14445	81414.17254	2673.60466
0.14409	81362.06184	2672.60466
0.14374	81310.00015	2671.60466
0.14339	81257.98727	2670.60466
0.14304	81206.02301	2669.60466
0.14269	81154.10719	2668.60466
0.14235	81102.23961	2667.60466
0.14200	81050.42010	2666.60466
0.14166	80998.64846	2665.60466
0.14131	80946.92452	2664.60466
0.14097	80895.24809	2663.60466
0.14063	80843.61899	2662.60466
0.14029	80792.03704	2661.60466
0.13995	80740.50206	2660.60466
0.13961	80689.01387	2659.60466
0.13928	80637.57230	2658.60466
0.13894	80586.17716	2657.60466
0.13860	80534.82828	2656.60466
0.13827	80483.52549	2655.60466
0.13794	80432.26861	2654.60466
0.13761	80381.05747	2653.60466
0.13728	80329.89190	2652.60466
0.13695	80278.77173	2651.60466
0.13662	80227.69679	2650.60466
0.13629	80176.66691	2649.60466
0.13596	80125.68191	2648.60466
0.13564	80074.74164	2647.60466
0.13531	80023.84593	2646.60466
0.13499	79972.99462	2645.60466
0.13466	79922.18753	2644.60466
0.13434	79871.42451	2643.60466
0.13402	79820.70539	2642.60466
0.13370	79770.03001	2641.60466
0.13338	79719.39821	2640.60466
0.13307	79668.80983	2639.60466
0.13275	79618.26472	2638.60466
0.13243	79567.76271	2637.60466
0.13212	79517.30364	2636.60466
0.13180	79466.88737	2635.60466
0.13149	79416.51373	2634.60466
0.13118	79366.18258	2633.60466
0.13087	79315.89375	2632.60466
0.13056	79265.64709	2631.60466
0.13025	79215.44246	2630.60466
0.12994	79165.27970	2629.60466
0.12963	79115.15865	2628.60466
0.12932	79065.07918	2627.60466
0.12902	79015.04113	2626.60466
0.12871	78965.04436	2625.60466
0.12841	78915.08871	2624.60466
0.12811	78865.17404	2623.60466
0.12780	78815.30021	2622.60466
0.12750	78765.46707	2621.60466
0.12720	78715.67448	2620.60466
0.12690	78665.92228	2619.60466
0.12660	78616.21035	2618.60466
0.12631	78566.53854	2617.60466
0.12601	78516.90671	2616.60466
0.12571	78467.31472	2615.60466
0.12542	78417.76242	2614.60466
0.12513	78368.24968	2613.60466
0.12483	78318.77637	2612.60466
0.12454	78269.34234	2611.60466
0.12425	78219.94746	2610.60466
0.12396	78170.59160	2609.60466
0.12367	78121.27461	2608.60466
0.12338	78071.99637	2607.60466
0.12309	78022.75674	2606.60466
0.12280	77973.55558	2605.60466
0.12252	77924.39278	2604.60466
0.12223	77875.26818	2603.60466
0.12195	77826.18167	2602.60466
0.12166	77777.13312	2601.60466
0.12138	77728.12239	2600.60466
0.12110	77679.14935	2599.60466
0.12082	77630.21389	2598.60466
0.12053	77581.31586	2597.60466
0.12025	77532.45515	2596.60466
0.11998	77483.63163	2595.60466
0.11970	77434.84517	2594.60466
0.11942	77386.09566	2593.60466
0.11914	77337.38295	2592.60466
0.11887	77288.70694	2591.60466
0.11859	77240.06750	2590.60466
0.11832	77191.46451	2589.60466
0.11804	77142.89785	2588.60466
0.11777	77094.36739	2587.60466
0.11750	77045.87301	2586.60466
0.11723	76997.41460	2585.60466
0.11696	76948.99205	2584.60466
0.11669	76900.60522	2583.60466
0.11642	76852.25400	2582.60466
0.11615	76803.93828	2581.60466
0.11588	76755.65794	2580.60466
0.11562	76707.41286	2579.60466
0.11535	76659.20293	2578.60466
0.11509	76611.02804	2577.60466
