Mole fraction of liquid	Heat per mole [J]	Temperature [K]
1.00000	1.41227E5	3284.87773
0.99997	1.41222E5	3284.78210
0.99407	1.40914E5	3283.78210
0.98822	1.40610E5	3282.78210
0.98242	1.40307E5	3281.78210
0.97667	1.40007E5	3280.78210
0.97096	1.39709E5	3279.78210
0.96531	1.39413E5	3278.78210
0.95969	1.39119E5	3277.78210
0.95413	1.38828E5	3276.78210
0.94861	1.38538E5	3275.78210
0.94313	1.38251E5	3274.78210
0.93770	1.37965E5	3273.78210
0.93231	1.37682E5	3272.78210
0.92696	1.37401E5	3271.78210
0.92166	1.37122E5	3270.78210
0.91640	1.36845E5	3269.78210
0.91118	1.36569E5	3268.78210
0.90601	1.36296E5	3267.78210
0.90087	1.36025E5	3266.78210
0.89578	1.35755E5	3265.78210
0.89072	1.35487E5	3264.78210
0.88571	1.35222E5	3263.78210
0.88073	1.34958E5	3262.78210
0.87580	1.34696E5	3261.78210
0.87090	1.34435E5	3260.78210
0.86604	1.34177E5	3259.78210
0.86122	1.33920E5	3258.78210
0.85644	1.33665E5	3257.78210
0.85169	1.33412E5	3256.78210
0.84698	1.33160E5	3255.78210
0.84231	1.32911E5	3254.78210
0.83767	1.32662E5	3253.78210
0.83307	1.32416E5	3252.78210
0.82850	1.32171E5	3251.78210
0.82397	1.31928E5	3250.78210
0.81948	1.31686E5	3249.78210
0.81501	1.31446E5	3248.78210
0.81058	1.31208E5	3247.78210
0.80619	1.30971E5	3246.78210
0.80183	1.30736E5	3245.78210
0.79750	1.30502E5	3244.78210
0.79320	1.30270E5	3243.78210
0.78894	1.30039E5	3242.78210
0.78471	1.29810E5	3241.78210
0.78051	1.29582E5	3240.78210
0.77634	1.29355E5	3239.78210
0.77220	1.29131E5	3238.78210
0.76810	1.28907E5	3237.78210
0.76402	1.28685E5	3236.78210
0.75997	1.28464E5	3235.78210
0.75596	1.28245E5	3234.78210
0.75197	1.28027E5	3233.78210
0.74801	1.27811E5	3232.78210
0.74409	1.27595E5	3231.78210
0.74019	1.27382E5	3230.78210
0.73632	1.27169E5	3229.78210
0.73247	1.26958E5	3228.78210
0.72866	1.26748E5	3227.78210
0.72487	1.26539E5	3226.78210
0.72111	1.26332E5	3225.78210
0.71738	1.26126E5	3224.78210
0.71368	1.25921E5	3223.78210
0.71000	1.25717E5	3222.78210
0.70634	1.25515E5	3221.78210
0.70272	1.25314E5	3220.78210
0.69912	1.25114E5	3219.78210
0.69554	1.24915E5	3218.78210
0.69199	1.24717E5	3217.78210
0.68847	1.24521E5	3216.78210
0.68497	1.24325E5	3215.78210
0.68150	1.24131E5	3214.78210
0.67805	1.23938E5	3213.78210
0.67462	1.23746E5	3212.78210
0.67122	1.23555E5	3211.78210
0.66784	1.23366E5	3210.78210
0.66449	1.23177E5	3209.78210
0.66116	1.22990E5	3208.78210
0.65785	1.22803E5	3207.78210
0.65457	1.22618E5	3206.78210
0.65131	1.22433E5	3205.78210
0.64807	1.22250E5	3204.78210
0.64485	1.22068E5	3203.78210
0.64166	1.21887E5	3202.78210
0.63849	1.21706E5	3201.78210
0.63534	1.21527E5	3200.78210
0.63221	1.21349E5	3199.78210
0.62910	1.21172E5	3198.78210
0.62602	1.20995E5	3197.78210
0.62295	1.20820E5	3196.78210
0.61991	1.20646E5	3195.78210
0.61689	1.20472E5	3194.78210
0.61388	1.20300E5	3193.78210
0.61090	1.20129E5	3192.78210
0.60794	1.19958E5	3191.78210
0.60500	1.19788E5	3190.78210
0.60207	1.19620E5	3189.78210
0.59917	1.19452E5	3188.78210
0.59629	1.19285E5	3187.78210
0.59342	1.19119E5	3186.78210
0.59058	1.18953E5	3185.78210
0.58775	1.18789E5	3184.78210
0.58494	1.18626E5	3183.78210
0.58215	1.18463E5	3182.78210
0.57938	1.18301E5	3181.78210
0.57663	1.18140E5	3180.78210
0.57390	1.17980E5	3179.78210
0.57118	1.17821E5	3178.78210
0.56848	1.17663E5	3177.78210
0.56580	1.17505E5	3176.78210
0.56314	1.17348E5	3175.78210
0.56049	1.17192E5	3174.78210
0.55787	1.17037E5	3173.78210
0.55525	1.16882E5	3172.78210
0.55266	1.16729E5	3171.78210
0.55008	1.16576E5	3170.78210
0.54752	1.16424E5	3169.78210
0.54498	1.16272E5	3168.78210
0.54245	1.16122E5	3167.78210
0.53994	1.15972E5	3166.78210
0.53744	1.15823E5	3165.78210
0.53496	1.15674E5	3164.78210
0.53250	1.15526E5	3163.78210
0.53005	1.15379E5	3162.78210
0.52762	1.15233E5	3161.78210
0.52520	1.15088E5	3160.78210
0.52280	1.14943E5	3159.78210
0.52041	1.14799E5	3158.78210
0.51804	1.14655E5	3157.78210
0.51568	1.14512E5	3156.78210
0.51334	1.14370E5	3155.78210
0.51102	1.14229E5	3154.78210
0.50870	1.14088E5	3153.78210
0.50641	1.13948E5	3152.78210
0.50412	1.13808E5	3151.78210
0.50185	1.13669E5	3150.78210
0.49960	1.13531E5	3149.78210
0.49736	1.13394E5	3148.78210
0.49513	1.13257E5	3147.78210
0.49291	1.13121E5	3146.78210
0.49072	1.12985E5	3145.78210
0.48853	1.12850E5	3144.78210
0.48636	1.12716E5	3143.78210
0.48420	1.12582E5	3142.78210
0.48205	1.12448E5	3141.78210
0.47992	1.12316E5	3140.78210
0.47780	1.12184E5	3139.78210
0.47569	1.12052E5	3138.78210
0.47360	1.11922E5	3137.78210
0.47151	1.11791E5	3136.78210
0.46944	1.11662E5	3135.78210
0.46739	1.11533E5	3134.78210
0.46534	1.11404E5	3133.78210
0.46331	1.11276E5	3132.78210
0.46129	1.11149E5	3131.78210
0.45928	1.11022E5	3130.78210
0.45729	1.10895E5	3129.78210
0.45531	1.10770E5	3128.78210
0.45333	1.10644E5	3127.78210
0.45137	1.10520E5	3126.78210
0.44943	1.10395E5	3125.78210
0.44749	1.10272E5	3124.78210
0.44556	1.10149E5	3123.78210
0.44365	1.10026E5	3122.78210
0.44175	1.09904E5	3121.78210
0.43986	1.09782E5	3120.78210
0.43798	1.09661E5	3119.78210
0.43611	1.09541E5	3118.78210
0.43425	1.09421E5	3117.78210
0.43240	1.09301E5	3116.78210
0.43057	1.09182E5	3115.78210
0.42874	1.09063E5	3114.78210
0.42693	1.08945E5	3113.78210
0.42512	1.08827E5	3112.78210
0.42333	1.08710E5	3111.78210
0.42154	1.08594E5	3110.78210
0.41977	1.08477E5	3109.78210
0.41801	1.08361E5	3108.78210
0.41626	1.08246E5	3107.78210
0.41451	1.08131E5	3106.78210
0.41278	1.08017E5	3105.78210
0.41106	1.07903E5	3104.78210
0.40935	1.07789E5	3103.78210
0.40764	1.07676E5	3102.78210
0.40595	1.07564E5	3101.78210
0.40427	1.07452E5	3100.78210
0.40259	1.07340E5	3099.78210
0.40093	1.07229E5	3098.78210
0.39927	1.07118E5	3097.78210
0.39763	1.07007E5	3096.78210
0.39599	1.06897E5	3095.78210
0.39436	1.06787E5	3094.78210
0.39274	1.06678E5	3093.78210
0.39113	1.06569E5	3092.78210
0.38953	1.06461E5	3091.78210
0.38794	1.06353E5	3090.78210
0.38636	1.06245E5	3089.78210
0.38479	1.06138E5	3088.78210
0.38322	1.06032E5	3087.78210
0.38167	1.05925E5	3086.78210
0.38012	1.05819E5	3085.78210
0.37858	1.05713E5	3084.78210
0.37705	1.05608E5	3083.78210
0.37553	1.05503E5	3082.78210
0.37402	1.05399E5	3081.78210
0.37251	1.05295E5	3080.78210
0.37102	1.05191E5	3079.78210
0.36953	1.05088E5	3078.78210
0.36805	1.04985E5	3077.78210
0.36657	1.04882E5	3076.78210
0.36511	1.04780E5	3075.78210
0.36365	1.04678E5	3074.78210
0.36221	1.04576E5	3073.78210
0.36077	1.04475E5	3072.78210
0.35933	1.04374E5	3071.78210
0.35791	1.04274E5	3070.78210
0.35649	1.04174E5	3069.78210
0.35508	1.04074E5	3068.78210
0.35368	1.03975E5	3067.78210
0.35229	1.03876E5	3066.78210
0.35090	1.03777E5	3065.78210
0.34952	1.03678E5	3064.78210
0.34815	1.03580E5	3063.78210
0.34678	1.03482E5	3062.78210
0.34543	1.03385E5	3061.78210
0.34408	1.03288E5	3060.78210
0.34273	1.03191E5	3059.78210
0.34140	1.03095E5	3058.78210
0.34007	1.02999E5	3057.78210
0.33875	1.02903E5	3056.78210
0.33743	1.02807E5	3055.78210
0.33613	1.02712E5	3054.78210
0.33482	1.02617E5	3053.78210
0.33353	1.02523E5	3052.78210
0.33224	1.02428E5	3051.78210
0.33096	1.02334E5	3050.78210
0.32969	1.02241E5	3049.78210
0.32842	1.02147E5	3048.78210
0.32716	1.02054E5	3047.78210
0.32591	1.01961E5	3046.78210
0.32466	1.01869E5	3045.78210
0.32342	1.01777E5	3044.78210
0.32219	1.01685E5	3043.78210
0.32096	1.01593E5	3042.78210
0.31974	1.01502E5	3041.78210
0.31852	1.01411E5	3040.78210
0.31731	1.01320E5	3039.78210
0.31611	1.01230E5	3038.78210
0.31491	1.01139E5	3037.78210
0.31372	1.01049E5	3036.78210
0.31254	1.00960E5	3035.78210
0.31136	1.00870E5	3034.78210
0.31019	1.00781E5	3033.78210
0.30902	1.00692E5	3032.78210
0.30786	1.00604E5	3031.78210
0.30670	1.00516E5	3030.78210
0.30555	1.00428E5	3029.78210
0.30441	1.00340E5	3028.78210
0.30327	1.00252E5	3027.78210
0.30214	1.00165E5	3026.78210
0.30102	1.00078E5	3025.78210
0.29990	99991.19011	3024.78210
0.29878	99904.68571	3023.78210
0.29767	99818.43258	3022.78210
0.29657	99732.42907	3021.78210
0.29547	99646.67351	3020.78210
0.29438	99561.16427	3019.78210
0.29329	99475.89973	3018.78210
0.29221	99390.87829	3017.78210
0.29114	99306.09833	3016.78210
0.29007	99221.55829	3015.78210
0.28900	99137.25658	3014.78210
0.28794	99053.19165	3013.78210
0.28689	98969.36196	3012.78210
0.28584	98885.76597	3011.78210
0.28479	98802.40217	3010.78210
0.28375	98719.26904	3009.78210
0.28272	98636.36509	3008.78210
0.28169	98553.68883	3007.78210
0.28066	98471.23880	3006.78210
0.27965	98389.01353	3005.78210
0.27863	98307.01158	3004.78210
0.27762	98225.23150	3003.78210
0.27662	98143.67188	3002.78210
0.27562	98062.33130	3001.78210
0.27462	97981.20835	3000.78210
0.27363	97900.30165	2999.78210
0.27265	97819.60982	2998.78210
0.27167	97739.13149	2997.78210
0.27069	97658.86529	2996.78210
0.26972	97578.80988	2995.78210
0.26876	97498.96393	2994.78210
0.26780	97419.32611	2993.78210
0.26684	97339.89509	2992.78210
0.26589	97260.66959	2991.78210
0.26494	97181.64829	2990.78210
0.26400	97102.82993	2989.78210
0.26306	97024.21321	2988.78210
0.26212	96945.79688	2987.78210
0.26119	96867.57968	2986.78210
0.26027	96789.56037	2985.78210
0.25935	96711.73771	2984.78210
0.25843	96634.11047	2983.78210
0.25752	96556.67744	2982.78210
0.25661	96479.43742	2981.78210
0.25571	96402.38919	2980.78210
0.25481	96325.53159	2979.78210
0.25391	96248.86342	2978.78210
0.25302	96172.38352	2977.78210
0.25213	96096.09072	2976.78210
0.25125	96019.98388	2975.78210
0.25037	95944.06185	2974.78210
0.24950	95868.32350	2973.78210
0.24863	95792.76770	2972.78210
0.24776	95717.39333	2971.78210
0.24690	95642.19929	2970.78210
0.24604	95567.18448	2969.78210
0.24519	95492.34780	2968.78210
0.24433	95417.68818	2967.78210
0.24349	95343.20453	2966.78210
0.24265	95268.89579	2965.78210
0.24181	95194.76090	2964.78210
0.24097	95120.79881	2963.78210
0.24014	95047.00849	2962.78210
0.23931	94973.38888	2961.78210
0.23849	94899.93898	2960.78210
0.23767	94826.65775	2959.78210
0.23685	94753.54418	2958.78210
0.23604	94680.59728	2957.78210
0.23523	94607.81604	2956.78210
0.23443	94535.19948	2955.78210
0.23363	94462.74662	2954.78210
0.23283	94390.45648	2953.78210
0.23204	94318.32809	2952.78210
0.23125	94246.36050	2951.78210
0.23046	94174.55275	2950.78210
0.22968	94102.90389	2949.78210
0.22890	94031.41300	2948.78210
0.22812	93960.07913	2947.78210
0.22735	93888.90137	2946.78210
0.22658	93817.87879	2945.78210
0.22581	93747.01048	2944.78210
0.22505	93676.29555	2943.78210
0.22429	93605.73309	2942.78210
0.22353	93535.32221	2941.78210
0.22278	93465.06202	2940.78210
0.22203	93394.95166	2939.78210
0.22129	93324.99025	2938.78210
0.22055	93255.17692	2937.78210
0.21981	93185.51081	2936.78210
0.21907	93115.99108	2935.78210
0.21834	93046.61687	2934.78210
0.21761	92977.38735	2933.78210
0.21688	92908.30168	2932.78210
0.21616	92839.35904	2931.78210
0.21544	92770.55860	2930.78210
0.21472	92701.89954	2929.78210
0.21401	92633.38107	2928.78210
0.21330	92565.00237	2927.78210
0.21259	92496.76264	2926.78210
0.21189	92428.66109	2925.78210
0.21119	92360.69694	2924.78210
0.21049	92292.86941	2923.78210
0.20979	92225.17771	2922.78210
0.20910	92157.62109	2921.78210
0.20841	92090.19877	2920.78210
0.20773	92022.90999	2919.78210
0.20704	91955.75401	2918.78210
0.20636	91888.73007	2917.78210
0.20569	91821.83743	2916.78210
0.20501	91755.07535	2915.78210
0.20434	91688.44311	2914.78210
0.20367	91621.93997	2913.78210
0.20301	91555.56522	2912.78210
0.20234	91489.31812	2911.78210
0.20168	91423.19799	2910.78210
0.20103	91357.20410	2909.78210
0.20037	91291.33576	2908.78210
0.19972	91225.59226	2907.78210
0.19907	91159.97292	2906.78210
0.19843	91094.47706	2905.78210
0.19778	91029.10398	2904.78210
0.19714	90963.85301	2903.78210
0.19650	90898.72348	2902.78210
0.19587	90833.71472	2901.78210
0.19524	90768.82607	2900.78210
0.19461	90704.05686	2899.78210
0.19398	90639.40645	2898.78210
0.19335	90574.87418	2897.78210
0.19273	90510.45942	2896.78210
0.19211	90446.16151	2895.78210
0.19149	90381.97982	2894.78210
0.19088	90317.91373	2893.78210
0.19027	90253.96260	2892.78210
0.18966	90190.12582	2891.78210
0.18905	90126.40276	2890.78210
0.18845	90062.79280	2889.78210
0.18785	89999.29534	2888.78210
0.18725	89935.90978	2887.78210
0.18665	89872.63551	2886.78210
0.18606	89809.47193	2885.78210
0.18547	89746.41845	2884.78210
0.18488	89683.47448	2883.78210
0.18429	89620.63943	2882.78210
0.18370	89557.91273	2881.78210
0.18312	89495.29380	2880.78210
0.18254	89432.78205	2879.78210
0.18196	89370.37693	2878.78210
0.18139	89308.07787	2877.78210
0.18082	89245.88430	2876.78210
0.18025	89183.79567	2875.78210
0.17968	89121.81142	2874.78210
0.17911	89059.93100	2873.78210
0.17855	88998.15387	2872.78210
0.17799	88936.47948	2871.78210
0.17743	88874.90729	2870.78210
0.17687	88813.43677	2869.78210
0.17632	88752.06739	2868.78210
0.17577	88690.79860	2867.78210
0.17522	88629.62990	2866.78210
0.17467	88568.56076	2865.78210
0.17412	88507.59066	2864.78210
0.17358	88446.71908	2863.78210
0.17304	88385.94552	2862.78210
0.17250	88325.26947	2861.78210
0.17196	88264.69042	2860.78210
0.17143	88204.20787	2859.78210
0.17090	88143.82132	2858.78210
0.17036	88083.53028	2857.78210
0.16984	88023.33426	2856.78210
0.16931	87963.23277	2855.78210
0.16879	87903.22532	2854.78210
0.16826	87843.31144	2853.78210
0.16774	87783.49064	2852.78210
0.16723	87723.76246	2851.78210
0.16671	87664.12641	2850.78210
0.16620	87604.58203	2849.78210
0.16568	87545.12885	2848.78210
0.16517	87485.76641	2847.78210
0.16467	87426.49425	2846.78210
0.16416	87367.31192	2845.78210
0.16366	87308.21896	2844.78210
0.16315	87249.21491	2843.78210
0.16265	87190.29934	2842.78210
0.16216	87131.47179	2841.78210
0.16166	87072.73183	2840.78210
0.16116	87014.07901	2839.78210
0.16067	86955.51290	2838.78210
0.16018	86897.03307	2837.78210
0.15969	86838.63908	2836.78210
0.15921	86780.33050	2835.78210
0.15872	86722.10692	2834.78210
0.15824	86663.96790	2833.78210
0.15776	86605.91304	2832.78210
0.15728	86547.94190	2831.78210
0.15680	86490.05409	2830.78210
0.15633	86432.24918	2829.78210
0.15585	86374.52676	2828.78210
0.15538	86316.88644	2827.78210
0.15491	86259.32780	2826.78210
0.15444	86201.85045	2825.78210
0.15398	86144.45399	2824.78210
0.15351	86087.13802	2823.78210
0.15305	86029.90214	2822.78210
0.15259	85972.74597	2821.78210
0.15213	85915.66912	2820.78210
0.15167	85858.67119	2819.78210
0.15121	85801.75182	2818.78210
0.15076	85744.91061	2817.78210
0.15031	85688.14719	2816.78210
0.14985	85631.46118	2815.78210
0.14941	85574.85221	2814.78210
0.14896	85518.31990	2813.78210
0.14851	85461.86389	2812.78210
0.14807	85405.48381	2811.78210
0.14763	85349.17930	2810.78210
0.14718	85292.94998	2809.78210
0.14675	85236.79551	2808.78210
0.14631	85180.71552	2807.78210
0.14587	85124.70966	2806.78210
0.14544	85068.77757	2805.78210
0.14500	85012.91891	2804.78210
0.14457	84957.13332	2803.78210
0.14414	84901.42046	2802.78210
0.14372	84845.77998	2801.78210
0.14329	84790.21154	2800.78210
0.14286	84734.71480	2799.78210
0.14244	84679.28943	2798.78210
0.14202	84623.93508	2797.78210
0.14160	84568.65142	2796.78210
0.14118	84513.43812	2795.78210
0.14076	84458.29485	2794.78210
0.14035	84403.22128	2793.78210
0.13993	84348.21708	2792.78210
0.13952	84293.28194	2791.78210
0.13911	84238.41553	2790.78210
0.13870	84183.61753	2789.78210
0.13829	84128.88761	2788.78210
0.13789	84074.22548	2787.78210
0.13748	84019.63080	2786.78210
0.13708	83965.10328	2785.78210
0.13667	83910.64259	2784.78210
0.13627	83856.24844	2783.78210
0.13587	83801.92051	2782.78210
0.13548	83747.65849	2781.78210
0.13508	83693.46210	2780.78210
0.13469	83639.33102	2779.78210
0.13429	83585.26495	2778.78210
0.13390	83531.26361	2777.78210
0.13351	83477.32669	2776.78210
0.13312	83423.45390	2775.78210
0.13273	83369.64495	2774.78210
0.13234	83315.89955	2773.78210
0.13196	83262.21740	2772.78210
0.13158	83208.59823	2771.78210
0.13119	83155.04175	2770.78210
0.13081	83101.54767	2769.78210
0.13043	83048.11572	2768.78210
0.13005	82994.74561	2767.78210
0.12968	82941.43706	2766.78210
0.12930	82888.18981	2765.78210
0.12893	82835.00357	2764.78210
0.12855	82781.87807	2763.78210
0.12818	82728.81303	2762.78210
0.12781	82675.80820	2761.78210
0.12744	82622.86330	2760.78210
0.12707	82569.97806	2759.78210
0.12671	82517.15223	2758.78210
0.12634	82464.38553	2757.78210
0.12598	82411.67770	2756.78210
0.12561	82359.02848	2755.78210
0.12525	82306.43762	2754.78210
0.12489	82253.90486	2753.78210
0.12453	82201.42994	2752.78210
0.12417	82149.01261	2751.78210
0.12382	82096.65261	2750.78210
0.12346	82044.34969	2749.78210
0.12311	81992.10360	2748.78210
0.12276	81939.91411	2747.78210
0.12240	81887.78094	2746.78210
0.12205	81835.70387	2745.78210
0.12170	81783.68265	2744.78210
0.12136	81731.71704	2743.78210
0.12101	81679.80679	2742.78210
0.12066	81627.95166	2741.78210
0.12032	81576.15142	2740.78210
0.11997	81524.40583	2739.78210
0.11963	81472.71466	2738.78210
0.11929	81421.07766	2737.78210
0.11895	81369.49461	2736.78210
0.11861	81317.96528	2735.78210
0.11827	81266.48943	2734.78210
0.11794	81215.06683	2733.78210
0.11760	81163.69727	2732.78210
0.11727	81112.38051	2731.78210
0.11694	81061.11633	2730.78210
0.11660	81009.90450	2729.78210
0.11627	80958.74480	2728.78210
0.11594	80907.63702	2727.78210
0.11561	80856.58092	2726.78210
0.11529	80805.57630	2725.78210
0.11496	80754.62294	2724.78210
0.11463	80703.72062	2723.78210
0.11431	80652.86912	2722.78210
0.11399	80602.06823	2721.78210
0.11367	80551.31774	2720.78210
0.11334	80500.61745	2719.78210
0.11302	80449.96713	2718.78210
0.11271	80399.36658	2717.78210
0.11239	80348.81559	2716.78210
0.11207	80298.31396	2715.78210
0.11175	80247.86148	2714.78210
0.11144	80197.45795	2713.78210
0.11113	80147.10317	2712.78210
0.11081	80096.79692	2711.78210
0.11050	80046.53902	2710.78210
0.11019	79996.32927	2709.78210
0.10988	79946.16746	2708.78210
0.10957	79896.05340	2707.78210
0.10927	79845.98689	2706.78210
0.10896	79795.96774	2705.78210
0.10865	79745.99576	2704.78210
0.10835	79696.07074	2703.78210
0.10804	79646.19251	2702.78210
0.10774	79596.36086	2701.78210
0.10744	79546.57562	2700.78210
0.10714	79496.83659	2699.78210
0.10684	79447.14358	2698.78210
0.10654	79397.49641	2697.78210
0.10624	79347.89489	2696.78210
0.10595	79298.33885	2695.78210
0.10565	79248.82809	2694.78210
0.10536	79199.36243	2693.78210
0.10506	79149.94170	2692.78210
0.10477	79100.56571	2691.78210
0.10448	79051.23428	2690.78210
0.10419	79001.94724	2689.78210
0.10389	78952.70441	2688.78210
0.10361	78903.50562	2687.78210
0.10332	78854.35068	2686.78210
0.10303	78805.23942	2685.78210
0.10274	78756.17168	2684.78210
0.10246	78707.14727	2683.78210
0.10217	78658.16603	2682.78210
0.10189	78609.22779	2681.78210
0.10161	78560.33238	2680.78210
0.10132	78511.47962	2679.78210
0.10104	78462.66936	2678.78210
0.10076	78413.90143	2677.78210
0.10048	78365.17565	2676.78210
0.10020	78316.49187	2675.78210
0.09993	78267.84992	2674.78210
0.09965	78219.24964	2673.78210
0.09937	78170.69086	2672.78210
0.09910	78122.17343	2671.78210
0.09882	78073.69719	2670.78210
0.09855	78025.26197	2669.78210
0.09828	77976.86762	2668.78210
0.09801	77928.51398	2667.78210
0.09774	77880.20089	2666.78210
0.09747	77831.92820	2665.78210
0.09720	77783.69575	2664.78210
0.09693	77735.50340	2663.78210
0.09666	77687.35097	2662.78210
0.09639	77639.23833	2661.78210
0.09613	77591.16532	2660.78210
0.09586	77543.13178	2659.78210
0.09560	77495.13758	2658.78210
0.09533	77447.18256	2657.78210
0.09507	77399.26657	2656.78210
0.09481	77351.38946	2655.78210
0.09455	77303.55110	2654.78210
0.09429	77255.75132	2653.78210
0.09403	77207.98999	2652.78210
0.09377	77160.26696	2651.78210
0.09351	77112.58210	2650.78210
0.09325	77064.93524	2649.78210
0.09300	77017.32626	2648.78210
0.09274	76969.75502	2647.78210
0.09249	76922.22136	2646.78210
0.09223	76874.72516	2645.78210
0.09198	76827.26627	2644.78210
0.09173	76779.84455	2643.78210
0.09148	76732.45987	2642.78210
0.09122	76685.11209	2641.78210
0.09097	76637.80107	2640.78210
0.09073	76590.52669	2639.78210
0.09048	76543.28879	2638.78210
0.09023	76496.08726	2637.78210
0.08998	76448.92195	2636.78210
0.08973	76401.79274	2635.78210
0.08949	76354.69949	2634.78210
0.08924	76307.64207	2633.78210
0.08900	76260.62036	2632.78210
0.08875	76213.63421	2631.78210
0.08851	76166.68351	2630.78210
0.08827	76119.76812	2629.78210
0.08803	76072.88791	2628.78210
0.08779	76026.04277	2627.78210
0.08755	75979.23256	2626.78210
