Mole fraction of liquid	Heat per mole [J]	Temperature [K]
1.00000	1.45180E5	3346.97512
0.99996	1.45174E5	3346.87949
0.99300	1.44813E5	3345.87949
0.98611	1.44456E5	3344.87949
0.97929	1.44102E5	3343.87949
0.97254	1.43752E5	3342.87949
0.96585	1.43404E5	3341.87949
0.95922	1.43059E5	3340.87949
0.95266	1.42718E5	3339.87949
0.94616	1.42379E5	3338.87949
0.93973	1.42044E5	3337.87949
0.93335	1.41711E5	3336.87949
0.92704	1.41381E5	3335.87949
0.92079	1.41054E5	3334.87949
0.91459	1.40730E5	3333.87949
0.90846	1.40409E5	3332.87949
0.90238	1.40090E5	3331.87949
0.89636	1.39774E5	3330.87949
0.89040	1.39461E5	3329.87949
0.88450	1.39150E5	3328.87949
0.87864	1.38842E5	3327.87949
0.87285	1.38536E5	3326.87949
0.86710	1.38234E5	3325.87949
0.86142	1.37933E5	3324.87949
0.85578	1.37635E5	3323.87949
0.85019	1.37340E5	3322.87949
0.84466	1.37047E5	3321.87949
0.83918	1.36756E5	3320.87949
0.83374	1.36467E5	3319.87949
0.82836	1.36181E5	3318.87949
0.82303	1.35898E5	3317.87949
0.81774	1.35616E5	3316.87949
0.81250	1.35337E5	3315.87949
0.80731	1.35060E5	3314.87949
0.80217	1.34785E5	3313.87949
0.79707	1.34513E5	3312.87949
0.79202	1.34242E5	3311.87949
0.78701	1.33974E5	3310.87949
0.78205	1.33708E5	3309.87949
0.77713	1.33443E5	3308.87949
0.77226	1.33181E5	3307.87949
0.76742	1.32921E5	3306.87949
0.76264	1.32663E5	3305.87949
0.75789	1.32407E5	3304.87949
0.75318	1.32153E5	3303.87949
0.74852	1.31900E5	3302.87949
0.74390	1.31650E5	3301.87949
0.73931	1.31401E5	3300.87949
0.73477	1.31155E5	3299.87949
0.73026	1.30910E5	3298.87949
0.72580	1.30667E5	3297.87949
0.72137	1.30426E5	3296.87949
0.71698	1.30186E5	3295.87949
0.71263	1.29949E5	3294.87949
0.70832	1.29713E5	3293.87949
0.70404	1.29479E5	3292.87949
0.69980	1.29246E5	3291.87949
0.69560	1.29015E5	3290.87949
0.69143	1.28786E5	3289.87949
0.68729	1.28559E5	3288.87949
0.68319	1.28333E5	3287.87949
0.67913	1.28109E5	3286.87949
0.67510	1.27886E5	3285.87949
0.67110	1.27665E5	3284.87949
0.66714	1.27445E5	3283.87949
0.66320	1.27227E5	3282.87949
0.65931	1.27011E5	3281.87949
0.65544	1.26796E5	3280.87949
0.65161	1.26582E5	3279.87949
0.64780	1.26370E5	3278.87949
0.64403	1.26160E5	3277.87949
0.64029	1.25950E5	3276.87949
0.63658	1.25743E5	3275.87949
0.63290	1.25536E5	3274.87949
0.62925	1.25331E5	3273.87949
0.62563	1.25128E5	3272.87949
0.62204	1.24926E5	3271.87949
0.61848	1.24725E5	3270.87949
0.61495	1.24525E5	3269.87949
0.61144	1.24327E5	3268.87949
0.60797	1.24130E5	3267.87949
0.60452	1.23935E5	3266.87949
0.60109	1.23740E5	3265.87949
0.59770	1.23547E5	3264.87949
0.59433	1.23355E5	3263.87949
0.59099	1.23165E5	3262.87949
0.58768	1.22976E5	3261.87949
0.58439	1.22787E5	3260.87949
0.58113	1.22601E5	3259.87949
0.57789	1.22415E5	3258.87949
0.57468	1.22230E5	3257.87949
0.57150	1.22047E5	3256.87949
0.56833	1.21865E5	3255.87949
0.56520	1.21683E5	3254.87949
0.56209	1.21503E5	3253.87949
0.55900	1.21325E5	3252.87949
0.55593	1.21147E5	3251.87949
0.55289	1.20970E5	3250.87949
0.54988	1.20795E5	3249.87949
0.54688	1.20620E5	3248.87949
0.54391	1.20447E5	3247.87949
0.54096	1.20274E5	3246.87949
0.53804	1.20103E5	3245.87949
0.53513	1.19932E5	3244.87949
0.53225	1.19763E5	3243.87949
0.52939	1.19595E5	3242.87949
0.52655	1.19428E5	3241.87949
0.52373	1.19261E5	3240.87949
0.52094	1.19096E5	3239.87949
0.51816	1.18931E5	3238.87949
0.51541	1.18768E5	3237.87949
0.51268	1.18606E5	3236.87949
0.50996	1.18444E5	3235.87949
0.50727	1.18283E5	3234.87949
0.50460	1.18124E5	3233.87949
0.50194	1.17965E5	3232.87949
0.49931	1.17807E5	3231.87949
0.49670	1.17650E5	3230.87949
0.49410	1.17494E5	3229.87949
0.49152	1.17339E5	3228.87949
0.48897	1.17184E5	3227.87949
0.48643	1.17031E5	3226.87949
0.48391	1.16878E5	3225.87949
0.48141	1.16727E5	3224.87949
0.47892	1.16576E5	3223.87949
0.47646	1.16425E5	3222.87949
0.47401	1.16276E5	3221.87949
0.47158	1.16128E5	3220.87949
0.46917	1.15980E5	3219.87949
0.46677	1.15833E5	3218.87949
0.46439	1.15687E5	3217.87949
0.46203	1.15542E5	3216.87949
0.45969	1.15397E5	3215.87949
0.45736	1.15253E5	3214.87949
0.45505	1.15110E5	3213.87949
0.45275	1.14968E5	3212.87949
0.45048	1.14827E5	3211.87949
0.44821	1.14686E5	3210.87949
0.44597	1.14546E5	3209.87949
0.44374	1.14406E5	3208.87949
0.44152	1.14268E5	3207.87949
0.43932	1.14130E5	3206.87949
0.43714	1.13993E5	3205.87949
0.43497	1.13856E5	3204.87949
0.43281	1.13720E5	3203.87949
0.43068	1.13585E5	3202.87949
0.42855	1.13451E5	3201.87949
0.42644	1.13317E5	3200.87949
0.42435	1.13184E5	3199.87949
0.42227	1.13052E5	3198.87949
0.42020	1.12920E5	3197.87949
0.41815	1.12789E5	3196.87949
0.41611	1.12658E5	3195.87949
0.41409	1.12528E5	3194.87949
0.41208	1.12399E5	3193.87949
0.41008	1.12270E5	3192.87949
0.40810	1.12142E5	3191.87949
0.40613	1.12015E5	3190.87949
0.40417	1.11888E5	3189.87949
0.40223	1.11762E5	3188.87949
0.40030	1.11637E5	3187.87949
0.39838	1.11512E5	3186.87949
0.39648	1.11387E5	3185.87949
0.39458	1.11264E5	3184.87949
0.39270	1.11140E5	3183.87949
0.39084	1.11018E5	3182.87949
0.38898	1.10896E5	3181.87949
0.38714	1.10774E5	3180.87949
0.38531	1.10653E5	3179.87949
0.38350	1.10533E5	3178.87949
0.38169	1.10413E5	3177.87949
0.37990	1.10294E5	3176.87949
0.37812	1.10175E5	3175.87949
0.37635	1.10057E5	3174.87949
0.37459	1.09939E5	3173.87949
0.37284	1.09822E5	3172.87949
0.37110	1.09705E5	3171.87949
0.36938	1.09589E5	3170.87949
0.36767	1.09473E5	3169.87949
0.36596	1.09358E5	3168.87949
0.36427	1.09243E5	3167.87949
0.36259	1.09129E5	3166.87949
0.36092	1.09016E5	3165.87949
0.35927	1.08903E5	3164.87949
0.35762	1.08790E5	3163.87949
0.35598	1.08678E5	3162.87949
0.35435	1.08566E5	3161.87949
0.35274	1.08455E5	3160.87949
0.35113	1.08344E5	3159.87949
0.34954	1.08234E5	3158.87949
0.34795	1.08124E5	3157.87949
0.34637	1.08015E5	3156.87949
0.34481	1.07906E5	3155.87949
0.34325	1.07797E5	3154.87949
0.34171	1.07689E5	3153.87949
0.34017	1.07582E5	3152.87949
0.33864	1.07474E5	3151.87949
0.33713	1.07368E5	3150.87949
0.33562	1.07261E5	3149.87949
0.33412	1.07156E5	3148.87949
0.33263	1.07050E5	3147.87949
0.33115	1.06945E5	3146.87949
0.32968	1.06841E5	3145.87949
0.32822	1.06736E5	3144.87949
0.32677	1.06633E5	3143.87949
0.32532	1.06529E5	3142.87949
0.32389	1.06426E5	3141.87949
0.32246	1.06324E5	3140.87949
0.32105	1.06222E5	3139.87949
0.31964	1.06120E5	3138.87949
0.31824	1.06018E5	3137.87949
0.31685	1.05917E5	3136.87949
0.31546	1.05817E5	3135.87949
0.31409	1.05717E5	3134.87949
0.31272	1.05617E5	3133.87949
0.31137	1.05517E5	3132.87949
0.31002	1.05418E5	3131.87949
0.30867	1.05320E5	3130.87949
0.30734	1.05221E5	3129.87949
0.30602	1.05123E5	3128.87949
0.30470	1.05026E5	3127.87949
0.30339	1.04928E5	3126.87949
0.30209	1.04831E5	3125.87949
0.30079	1.04735E5	3124.87949
0.29951	1.04639E5	3123.87949
0.29823	1.04543E5	3122.87949
0.29696	1.04447E5	3121.87949
0.29570	1.04352E5	3120.87949
0.29444	1.04257E5	3119.87949
0.29319	1.04163E5	3118.87949
0.29195	1.04069E5	3117.87949
0.29072	1.03975E5	3116.87949
0.28949	1.03881E5	3115.87949
0.28827	1.03788E5	3114.87949
0.28706	1.03695E5	3113.87949
0.28585	1.03603E5	3112.87949
0.28465	1.03510E5	3111.87949
0.28346	1.03418E5	3110.87949
0.28228	1.03327E5	3109.87949
0.28110	1.03236E5	3108.87949
0.27993	1.03145E5	3107.87949
0.27877	1.03054E5	3106.87949
0.27761	1.02964E5	3105.87949
0.27646	1.02874E5	3104.87949
0.27532	1.02784E5	3103.87949
0.27418	1.02694E5	3102.87949
0.27305	1.02605E5	3101.87949
0.27192	1.02516E5	3100.87949
0.27081	1.02428E5	3099.87949
0.26969	1.02339E5	3098.87949
0.26859	1.02251E5	3097.87949
0.26749	1.02164E5	3096.87949
0.26640	1.02076E5	3095.87949
0.26531	1.01989E5	3094.87949
0.26423	1.01902E5	3093.87949
0.26316	1.01816E5	3092.87949
0.26209	1.01729E5	3091.87949
0.26103	1.01643E5	3090.87949
0.25997	1.01557E5	3089.87949
0.25892	1.01472E5	3088.87949
0.25788	1.01387E5	3087.87949
0.25684	1.01302E5	3086.87949
0.25580	1.01217E5	3085.87949
0.25478	1.01132E5	3084.87949
0.25376	1.01048E5	3083.87949
0.25274	1.00964E5	3082.87949
0.25173	1.00881E5	3081.87949
0.25073	1.00797E5	3080.87949
0.24973	1.00714E5	3079.87949
0.24873	1.00631E5	3078.87949
0.24775	1.00548E5	3077.87949
0.24676	1.00466E5	3076.87949
0.24579	1.00384E5	3075.87949
0.24482	1.00302E5	3074.87949
0.24385	1.00220E5	3073.87949
0.24289	1.00138E5	3072.87949
0.24193	1.00057E5	3071.87949
0.24098	99976.07998	3070.87949
0.24004	99895.29051	3069.87949
0.23909	99814.73271	3068.87949
0.23816	99734.40496	3067.87949
0.23723	99654.30563	3066.87949
0.23630	99574.43310	3065.87949
0.23538	99494.78578	3064.87949
0.23447	99415.36207	3063.87949
0.23356	99336.16042	3062.87949
0.23265	99257.17926	3061.87949
0.23175	99178.41705	3060.87949
0.23086	99099.87226	3059.87949
0.22996	99021.54337	3058.87949
0.22908	98943.42889	3057.87949
0.22820	98865.52733	3056.87949
0.22732	98787.83720	3055.87949
0.22645	98710.35704	3054.87949
0.22558	98633.08540	3053.87949
0.22472	98556.02085	3052.87949
0.22386	98479.16195	3051.87949
0.22300	98402.50730	3050.87949
0.22215	98326.05549	3049.87949
0.22131	98249.80513	3048.87949
0.22047	98173.75485	3047.87949
0.21963	98097.90328	3046.87949
0.21880	98022.24906	3045.87949
0.21797	97946.79086	3044.87949
0.21715	97871.52734	3043.87949
0.21633	97796.45718	3042.87949
0.21551	97721.57908	3041.87949
0.21470	97646.89173	3040.87949
0.21390	97572.39386	3039.87949
0.21309	97498.08419	3038.87949
0.21230	97423.96144	3037.87949
0.21150	97350.02438	3036.87949
0.21071	97276.27175	3035.87949
0.20993	97202.70233	3034.87949
0.20914	97129.31489	3033.87949
0.20837	97056.10822	3032.87949
0.20759	96983.08112	3031.87949
0.20682	96910.23239	3030.87949
0.20606	96837.56086	3029.87949
0.20529	96765.06535	3028.87949
0.20454	96692.74470	3027.87949
0.20378	96620.59777	3026.87949
0.20303	96548.62340	3025.87949
0.20228	96476.82046	3024.87949
0.20154	96405.18784	3023.87949
0.20080	96333.72441	3022.87949
0.20007	96262.42907	3021.87949
0.19933	96191.30072	3020.87949
0.19861	96120.33828	3019.87949
0.19788	96049.54067	3018.87949
0.19716	95978.90682	3017.87949
0.19644	95908.43568	3016.87949
0.19573	95838.12618	3015.87949
0.19502	95767.97728	3014.87949
0.19431	95697.98796	3013.87949
0.19361	95628.15718	3012.87949
0.19291	95558.48393	3011.87949
0.19221	95488.96719	3010.87949
0.19152	95419.60597	3009.87949
0.19083	95350.39928	3008.87949
0.19014	95281.34612	3007.87949
0.18946	95212.44552	3006.87949
0.18878	95143.69652	3005.87949
0.18811	95075.09815	3004.87949
0.18743	95006.64945	3003.87949
0.18676	94938.34949	3002.87949
0.18610	94870.19732	3001.87949
0.18543	94802.19201	3000.87949
0.18477	94734.33264	2999.87949
0.18412	94666.61830	2998.87949
0.18346	94599.04807	2997.87949
0.18281	94531.62105	2996.87949
0.18217	94464.33635	2995.87949
0.18152	94397.19309	2994.87949
0.18088	94330.19037	2993.87949
0.18024	94263.32734	2992.87949
0.17961	94196.60312	2991.87949
0.17898	94130.01685	2990.87949
0.17835	94063.56769	2989.87949
0.17772	93997.25478	2988.87949
0.17710	93931.07729	2987.87949
0.17648	93865.03439	2986.87949
0.17586	93799.12524	2985.87949
0.17525	93733.34904	2984.87949
0.17464	93667.70496	2983.87949
0.17403	93602.19220	2982.87949
0.17343	93536.80996	2981.87949
0.17282	93471.55744	2980.87949
0.17223	93406.43387	2979.87949
0.17163	93341.43845	2978.87949
0.17103	93276.57041	2977.87949
0.17044	93211.82898	2976.87949
0.16986	93147.21340	2975.87949
0.16927	93082.72291	2974.87949
0.16869	93018.35676	2973.87949
0.16811	92954.11420	2972.87949
0.16753	92889.99449	2971.87949
0.16696	92825.99690	2970.87949
0.16638	92762.12069	2969.87949
0.16581	92698.36515	2968.87949
0.16525	92634.72956	2967.87949
0.16468	92571.21320	2966.87949
0.16412	92507.81537	2965.87949
0.16356	92444.53536	2964.87949
0.16301	92381.37249	2963.87949
0.16245	92318.32605	2962.87949
0.16190	92255.39537	2961.87949
0.16135	92192.57976	2960.87949
0.16081	92129.87854	2959.87949
0.16026	92067.29106	2958.87949
0.15972	92004.81664	2957.87949
0.15918	91942.45462	2956.87949
0.15865	91880.20435	2955.87949
0.15811	91818.06517	2954.87949
0.15758	91756.03645	2953.87949
0.15705	91694.11754	2952.87949
0.15653	91632.30781	2951.87949
0.15600	91570.60662	2950.87949
0.15548	91509.01336	2949.87949
0.15496	91447.52739	2948.87949
0.15444	91386.14810	2947.87949
0.15393	91324.87488	2946.87949
0.15342	91263.70713	2945.87949
0.15291	91202.64423	2944.87949
0.15240	91141.68559	2943.87949
0.15189	91080.83062	2942.87949
0.15139	91020.07872	2941.87949
0.15089	90959.42932	2940.87949
0.15039	90898.88182	2939.87949
0.14989	90838.43566	2938.87949
0.14940	90778.09026	2937.87949
0.14891	90717.84505	2936.87949
0.14842	90657.69946	2935.87949
0.14793	90597.65295	2934.87949
0.14744	90537.70495	2933.87949
0.14696	90477.85490	2932.87949
0.14648	90418.10227	2931.87949
0.14600	90358.44651	2930.87949
0.14552	90298.88707	2929.87949
0.14504	90239.42343	2928.87949
0.14457	90180.05505	2927.87949
0.14410	90120.78140	2926.87949
0.14363	90061.60196	2925.87949
0.14316	90002.51621	2924.87949
0.14270	89943.52362	2923.87949
0.14224	89884.62370	2922.87949
0.14178	89825.81592	2921.87949
0.14132	89767.09979	2920.87949
0.14086	89708.47479	2919.87949
0.14040	89649.94044	2918.87949
0.13995	89591.49623	2917.87949
0.13950	89533.14168	2916.87949
0.13905	89474.87630	2915.87949
0.13860	89416.69961	2914.87949
0.13816	89358.61111	2913.87949
0.13772	89300.61034	2912.87949
0.13727	89242.69683	2911.87949
0.13683	89184.87009	2910.87949
0.13640	89127.12967	2909.87949
0.13596	89069.47509	2908.87949
0.13553	89011.90591	2907.87949
0.13510	88954.42165	2906.87949
0.13466	88897.02188	2905.87949
0.13424	88839.70613	2904.87949
0.13381	88782.47396	2903.87949
0.13338	88725.32492	2902.87949
0.13296	88668.25857	2901.87949
0.13254	88611.27448	2900.87949
0.13212	88554.37221	2899.87949
0.13170	88497.55132	2898.87949
0.13129	88440.81139	2897.87949
0.13087	88384.15199	2896.87949
0.13046	88327.57269	2895.87949
0.13005	88271.07309	2894.87949
0.12964	88214.65275	2893.87949
0.12923	88158.31127	2892.87949
0.12883	88102.04823	2891.87949
0.12842	88045.86322	2890.87949
0.12802	87989.75585	2889.87949
0.12762	87933.72569	2888.87949
0.12722	87877.77237	2887.87949
0.12682	87821.89547	2886.87949
0.12643	87766.09460	2885.87949
0.12603	87710.36937	2884.87949
0.12564	87654.71940	2883.87949
0.12525	87599.14428	2882.87949
0.12486	87543.64365	2881.87949
0.12447	87488.21712	2880.87949
0.12409	87432.86430	2879.87949
0.12370	87377.58483	2878.87949
0.12332	87322.37833	2877.87949
0.12294	87267.24442	2876.87949
0.12256	87212.18275	2875.87949
0.12218	87157.19294	2874.87949
0.12181	87102.27463	2873.87949
0.12143	87047.42746	2872.87949
0.12106	86992.65106	2871.87949
0.12068	86937.94510	2870.87949
0.12031	86883.30920	2869.87949
0.11994	86828.74302	2868.87949
0.11958	86774.24620	2867.87949
0.11921	86719.81842	2866.87949
0.11885	86665.45930	2865.87949
0.11848	86611.16853	2864.87949
0.11812	86556.94575	2863.87949
0.11776	86502.79063	2862.87949
0.11740	86448.70283	2861.87949
0.11704	86394.68202	2860.87949
0.11669	86340.72787	2859.87949
0.11633	86286.84005	2858.87949
0.11598	86233.01824	2857.87949
0.11563	86179.26210	2856.87949
0.11528	86125.57132	2855.87949
0.11493	86071.94558	2854.87949
0.11458	86018.38457	2853.87949
0.11424	85964.88795	2852.87949
0.11389	85911.45542	2851.87949
0.11355	85858.08668	2850.87949
0.11321	85804.78140	2849.87949
0.11286	85751.53929	2848.87949
0.11253	85698.36003	2847.87949
0.11219	85645.24333	2846.87949
0.11185	85592.18887	2845.87949
0.11152	85539.19637	2844.87949
0.11118	85486.26552	2843.87949
0.11085	85433.39604	2842.87949
0.11052	85380.58762	2841.87949
0.11019	85327.83997	2840.87949
0.10986	85275.15280	2839.87949
0.10953	85222.52584	2838.87949
0.10920	85169.95878	2837.87949
0.10888	85117.45135	2836.87949
0.10855	85065.00326	2835.87949
0.10823	85012.61423	2834.87949
0.10791	84960.28399	2833.87949
0.10759	84908.01226	2832.87949
0.10727	84855.79876	2831.87949
0.10695	84803.64322	2830.87949
0.10664	84751.54537	2829.87949
0.10632	84699.50493	2828.87949
0.10601	84647.52164	2827.87949
0.10569	84595.59524	2826.87949
0.10538	84543.72546	2825.87949
0.10507	84491.91203	2824.87949
0.10476	84440.15470	2823.87949
0.10445	84388.45320	2822.87949
0.10415	84336.80728	2821.87949
0.10384	84285.21668	2820.87949
0.10354	84233.68114	2819.87949
0.10323	84182.20042	2818.87949
0.10293	84130.77427	2817.87949
0.10263	84079.40242	2816.87949
0.10233	84028.08464	2815.87949
0.10203	83976.82067	2814.87949
0.10173	83925.61028	2813.87949
0.10144	83874.45322	2812.87949
0.10114	83823.34924	2811.87949
0.10085	83772.29811	2810.87949
0.10055	83721.29959	2809.87949
0.10026	83670.35344	2808.87949
0.09997	83619.45942	2807.87949
0.09968	83568.61730	2806.87949
0.09939	83517.82685	2805.87949
0.09910	83467.08783	2804.87949
0.09881	83416.40002	2803.87949
0.09853	83365.76318	2802.87949
0.09824	83315.17710	2801.87949
0.09796	83264.64153	2800.87949
0.09768	83214.15627	2799.87949
0.09740	83163.72108	2798.87949
0.09712	83113.33575	2797.87949
0.09684	83063.00005	2796.87949
0.09656	83012.71377	2795.87949
0.09628	82962.47669	2794.87949
0.09600	82912.28858	2793.87949
0.09573	82862.14925	2792.87949
0.09545	82812.05847	2791.87949
0.09518	82762.01603	2790.87949
0.09491	82712.02172	2789.87949
0.09464	82662.07533	2788.87949
0.09436	82612.17666	2787.87949
0.09410	82562.32549	2786.87949
0.09383	82512.52163	2785.87949
0.09356	82462.76486	2784.87949
0.09329	82413.05498	2783.87949
0.09303	82363.39179	2782.87949
0.09276	82313.77510	2781.87949
0.09250	82264.20469	2780.87949
0.09224	82214.68038	2779.87949
0.09197	82165.20196	2778.87949
0.09171	82115.76924	2777.87949
0.09145	82066.38203	2776.87949
0.09119	82017.04013	2775.87949
0.09094	81967.74335	2774.87949
0.09068	81918.49150	2773.87949
0.09042	81869.28439	2772.87949
0.09017	81820.12182	2771.87949
0.08991	81771.00362	2770.87949
0.08966	81721.92960	2769.87949
0.08941	81672.89956	2768.87949
0.08915	81623.91333	2767.87949
0.08890	81574.97072	2766.87949
0.08865	81526.07156	2765.87949
0.08840	81477.21565	2764.87949
0.08816	81428.40282	2763.87949
0.08791	81379.63290	2762.87949
0.08766	81330.90570	2761.87949
0.08742	81282.22104	2760.87949
0.08717	81233.57876	2759.87949
0.08693	81184.97867	2758.87949
0.08668	81136.42060	2757.87949
0.08644	81087.90439	2756.87949
0.08620	81039.42986	2755.87949
0.08596	80990.99683	2754.87949
0.08572	80942.60514	2753.87949
0.08548	80894.25463	2752.87949
0.08524	80845.94512	2751.87949
0.08501	80797.67644	2750.87949
0.08477	80749.44844	2749.87949
0.08453	80701.26094	2748.87949
0.08430	80653.11379	2747.87949
0.08407	80605.00682	2746.87949
0.08383	80556.93987	2745.87949
0.08360	80508.91278	2744.87949
0.08337	80460.92538	2743.87949
0.08314	80412.97753	2742.87949
0.08291	80365.06906	2741.87949
0.08268	80317.19982	2740.87949
0.08245	80269.36965	2739.87949
0.08222	80221.57839	2738.87949
0.08200	80173.82590	2737.87949
0.08177	80126.11201	2736.87949
0.08154	80078.43658	2735.87949
0.08132	80030.79945	2734.87949
0.08110	79983.20048	2733.87949
0.08087	79935.63951	2732.87949
0.08065	79888.11640	2731.87949
0.08043	79840.63099	2730.87949
0.08021	79793.18314	2729.87949
0.07999	79745.77271	2728.87949
0.07977	79698.39955	2727.87949
0.07955	79651.06351	2726.87949
0.07933	79603.76445	2725.87949
0.07912	79556.50223	2724.87949
0.07890	79509.27670	2723.87949
0.07868	79462.08773	2722.87949
0.07847	79414.93518	2721.87949
0.07825	79367.81889	2720.87949
0.07804	79320.73875	2719.87949
0.07783	79273.69460	2718.87949
0.07762	79226.68631	2717.87949
0.07741	79179.71375	2716.87949
0.07719	79132.77678	2715.87949
0.07698	79085.87526	2714.87949
0.07678	79039.00905	2713.87949
0.07657	78992.17804	2712.87949
0.07636	78945.38208	2711.87949
0.07615	78898.62104	2710.87949
0.07595	78851.89479	2709.87949
0.07574	78805.20321	2708.87949
0.07553	78758.54615	2707.87949
0.07533	78711.92350	2706.87949
0.07513	78665.33512	2705.87949
0.07492	78618.78089	2704.87949
0.07472	78572.26068	2703.87949
0.07452	78525.77436	2702.87949
0.07432	78479.32182	2701.87949
0.07412	78432.90292	2700.87949
0.07392	78386.51754	2699.87949
0.07372	78340.16555	2698.87949
0.07352	78293.84685	2697.87949
0.07332	78247.56130	2696.87949
0.07312	78201.30878	2695.87949
0.07293	78155.08917	2694.87949
0.07273	78108.90236	2693.87949
0.07254	78062.74822	2692.87949
0.07234	78016.62664	2691.87949
0.07215	77970.53749	2690.87949
0.07195	77924.48067	2689.87949
0.07176	77878.45605	2688.87949
0.07157	77832.46352	2687.87949
