Mole fraction of liquid	Heat per mole [J]	Temperature [K]
1.00000	1.49416E5	3409.71137
0.99995	1.49409E5	3409.61575
0.99133	1.48968E5	3408.61575
0.98282	1.48532E5	3407.61575
0.97441	1.48102E5	3406.61575
0.96611	1.47675E5	3405.61575
0.95790	1.47254E5	3404.61575
0.94979	1.46837E5	3403.61575
0.94178	1.46425E5	3402.61575
0.93387	1.46018E5	3401.61575
0.92605	1.45615E5	3400.61575
0.91832	1.45216E5	3399.61575
0.91068	1.44822E5	3398.61575
0.90313	1.44432E5	3397.61575
0.89567	1.44046E5	3396.61575
0.88830	1.43664E5	3395.61575
0.88102	1.43287E5	3394.61575
0.87382	1.42913E5	3393.61575
0.86670	1.42543E5	3392.61575
0.85966	1.42177E5	3391.61575
0.85271	1.41816E5	3390.61575
0.84583	1.41457E5	3389.61575
0.83904	1.41103E5	3388.61575
0.83232	1.40752E5	3387.61575
0.82567	1.40405E5	3386.61575
0.81911	1.40061E5	3385.61575
0.81261	1.39721E5	3384.61575
0.80619	1.39384E5	3383.61575
0.79984	1.39051E5	3382.61575
0.79356	1.38721E5	3381.61575
0.78735	1.38394E5	3380.61575
0.78121	1.38070E5	3379.61575
0.77514	1.37750E5	3378.61575
0.76914	1.37433E5	3377.61575
0.76320	1.37119E5	3376.61575
0.75733	1.36808E5	3375.61575
0.75152	1.36500E5	3374.61575
0.74577	1.36195E5	3373.61575
0.74008	1.35893E5	3372.61575
0.73446	1.35594E5	3371.61575
0.72890	1.35298E5	3370.61575
0.72340	1.35004E5	3369.61575
0.71795	1.34713E5	3368.61575
0.71257	1.34425E5	3367.61575
0.70724	1.34140E5	3366.61575
0.70196	1.33858E5	3365.61575
0.69675	1.33577E5	3364.61575
0.69159	1.33300E5	3363.61575
0.68648	1.33025E5	3362.61575
0.68143	1.32753E5	3361.61575
0.67643	1.32483E5	3360.61575
0.67148	1.32215E5	3359.61575
0.66658	1.31950E5	3358.61575
0.66173	1.31688E5	3357.61575
0.65694	1.31427E5	3356.61575
0.65219	1.31169E5	3355.61575
0.64749	1.30913E5	3354.61575
0.64284	1.30660E5	3353.61575
0.63823	1.30409E5	3352.61575
0.63368	1.30160E5	3351.61575
0.62917	1.29913E5	3350.61575
0.62470	1.29668E5	3349.61575
0.62028	1.29425E5	3348.61575
0.61591	1.29184E5	3347.61575
0.61157	1.28946E5	3346.61575
0.60729	1.28709E5	3345.61575
0.60304	1.28475E5	3344.61575
0.59884	1.28242E5	3343.61575
0.59467	1.28011E5	3342.61575
0.59055	1.27783E5	3341.61575
0.58647	1.27556E5	3340.61575
0.58243	1.27331E5	3339.61575
0.57843	1.27108E5	3338.61575
0.57447	1.26886E5	3337.61575
0.57055	1.26667E5	3336.61575
0.56666	1.26449E5	3335.61575
0.56281	1.26233E5	3334.61575
0.55900	1.26019E5	3333.61575
0.55523	1.25806E5	3332.61575
0.55149	1.25595E5	3331.61575
0.54779	1.25386E5	3330.61575
0.54412	1.25178E5	3329.61575
0.54049	1.24972E5	3328.61575
0.53689	1.24768E5	3327.61575
0.53333	1.24565E5	3326.61575
0.52980	1.24364E5	3325.61575
0.52630	1.24164E5	3324.61575
0.52284	1.23966E5	3323.61575
0.51940	1.23769E5	3322.61575
0.51601	1.23574E5	3321.61575
0.51264	1.23381E5	3320.61575
0.50930	1.23188E5	3319.61575
0.50599	1.22997E5	3318.61575
0.50272	1.22808E5	3317.61575
0.49947	1.22620E5	3316.61575
0.49626	1.22433E5	3315.61575
0.49307	1.22248E5	3314.61575
0.48991	1.22064E5	3313.61575
0.48679	1.21882E5	3312.61575
0.48369	1.21700E5	3311.61575
0.48061	1.21520E5	3310.61575
0.47757	1.21342E5	3309.61575
0.47455	1.21164E5	3308.61575
0.47156	1.20988E5	3307.61575
0.46860	1.20813E5	3306.61575
0.46566	1.20639E5	3305.61575
0.46275	1.20467E5	3304.61575
0.45987	1.20296E5	3303.61575
0.45701	1.20125E5	3302.61575
0.45418	1.19956E5	3301.61575
0.45137	1.19789E5	3300.61575
0.44858	1.19622E5	3299.61575
0.44582	1.19456E5	3298.61575
0.44309	1.19292E5	3297.61575
0.44038	1.19129E5	3296.61575
0.43769	1.18966E5	3295.61575
0.43502	1.18805E5	3294.61575
0.43238	1.18645E5	3293.61575
0.42976	1.18486E5	3292.61575
0.42717	1.18328E5	3291.61575
0.42459	1.18171E5	3290.61575
0.42204	1.18015E5	3289.61575
0.41951	1.17860E5	3288.61575
0.41700	1.17706E5	3287.61575
0.41452	1.17553E5	3286.61575
0.41205	1.17401E5	3285.61575
0.40961	1.17250E5	3284.61575
0.40718	1.17100E5	3283.61575
0.40478	1.16951E5	3282.61575
0.40239	1.16803E5	3281.61575
0.40003	1.16655E5	3280.61575
0.39768	1.16509E5	3279.61575
0.39536	1.16363E5	3278.61575
0.39305	1.16219E5	3277.61575
0.39077	1.16075E5	3276.61575
0.38850	1.15932E5	3275.61575
0.38625	1.15790E5	3274.61575
0.38402	1.15649E5	3273.61575
0.38181	1.15509E5	3272.61575
0.37962	1.15369E5	3271.61575
0.37744	1.15230E5	3270.61575
0.37528	1.15093E5	3269.61575
0.37314	1.14955E5	3268.61575
0.37102	1.14819E5	3267.61575
0.36891	1.14684E5	3266.61575
0.36682	1.14549E5	3265.61575
0.36475	1.14415E5	3264.61575
0.36270	1.14282E5	3263.61575
0.36066	1.14150E5	3262.61575
0.35863	1.14018E5	3261.61575
0.35663	1.13887E5	3260.61575
0.35464	1.13757E5	3259.61575
0.35266	1.13627E5	3258.61575
0.35070	1.13499E5	3257.61575
0.34876	1.13370E5	3256.61575
0.34683	1.13243E5	3255.61575
0.34492	1.13116E5	3254.61575
0.34302	1.12991E5	3253.61575
0.34114	1.12865E5	3252.61575
0.33927	1.12741E5	3251.61575
0.33741	1.12617E5	3250.61575
0.33557	1.12493E5	3249.61575
0.33375	1.12371E5	3248.61575
0.33194	1.12249E5	3247.61575
0.33014	1.12127E5	3246.61575
0.32836	1.12007E5	3245.61575
0.32659	1.11887E5	3244.61575
0.32483	1.11767E5	3243.61575
0.32309	1.11648E5	3242.61575
0.32136	1.11530E5	3241.61575
0.31964	1.11412E5	3240.61575
0.31794	1.11295E5	3239.61575
0.31625	1.11179E5	3238.61575
0.31457	1.11063E5	3237.61575
0.31291	1.10948E5	3236.61575
0.31126	1.10833E5	3235.61575
0.30962	1.10719E5	3234.61575
0.30799	1.10605E5	3233.61575
0.30637	1.10492E5	3232.61575
0.30477	1.10380E5	3231.61575
0.30318	1.10268E5	3230.61575
0.30160	1.10156E5	3229.61575
0.30003	1.10045E5	3228.61575
0.29848	1.09935E5	3227.61575
0.29693	1.09825E5	3226.61575
0.29540	1.09716E5	3225.61575
0.29388	1.09607E5	3224.61575
0.29237	1.09499E5	3223.61575
0.29087	1.09391E5	3222.61575
0.28938	1.09284E5	3221.61575
0.28790	1.09177E5	3220.61575
0.28643	1.09070E5	3219.61575
0.28497	1.08965E5	3218.61575
0.28353	1.08859E5	3217.61575
0.28209	1.08754E5	3216.61575
0.28067	1.08650E5	3215.61575
0.27925	1.08546E5	3214.61575
0.27785	1.08443E5	3213.61575
0.27645	1.08340E5	3212.61575
0.27507	1.08237E5	3211.61575
0.27369	1.08135E5	3210.61575
0.27233	1.08033E5	3209.61575
0.27097	1.07932E5	3208.61575
0.26963	1.07831E5	3207.61575
0.26829	1.07731E5	3206.61575
0.26696	1.07631E5	3205.61575
0.26564	1.07531E5	3204.61575
0.26434	1.07432E5	3203.61575
0.26304	1.07333E5	3202.61575
0.26175	1.07235E5	3201.61575
0.26047	1.07137E5	3200.61575
0.25919	1.07040E5	3199.61575
0.25793	1.06943E5	3198.61575
0.25668	1.06846E5	3197.61575
0.25543	1.06750E5	3196.61575
0.25419	1.06654E5	3195.61575
0.25296	1.06559E5	3194.61575
0.25174	1.06463E5	3193.61575
0.25053	1.06369E5	3192.61575
0.24933	1.06274E5	3191.61575
0.24813	1.06180E5	3190.61575
0.24694	1.06087E5	3189.61575
0.24577	1.05993E5	3188.61575
0.24459	1.05901E5	3187.61575
0.24343	1.05808E5	3186.61575
0.24228	1.05716E5	3185.61575
0.24113	1.05624E5	3184.61575
0.23999	1.05533E5	3183.61575
0.23886	1.05442E5	3182.61575
0.23773	1.05351E5	3181.61575
0.23661	1.05260E5	3180.61575
0.23550	1.05170E5	3179.61575
0.23440	1.05080E5	3178.61575
0.23331	1.04991E5	3177.61575
0.23222	1.04902E5	3176.61575
0.23114	1.04813E5	3175.61575
0.23007	1.04725E5	3174.61575
0.22900	1.04637E5	3173.61575
0.22794	1.04549E5	3172.61575
0.22689	1.04461E5	3171.61575
0.22584	1.04374E5	3170.61575
0.22481	1.04287E5	3169.61575
0.22377	1.04201E5	3168.61575
0.22275	1.04114E5	3167.61575
0.22173	1.04028E5	3166.61575
0.22072	1.03943E5	3165.61575
0.21971	1.03857E5	3164.61575
0.21872	1.03772E5	3163.61575
0.21772	1.03688E5	3162.61575
0.21674	1.03603E5	3161.61575
0.21576	1.03519E5	3160.61575
0.21479	1.03435E5	3159.61575
0.21382	1.03351E5	3158.61575
0.21286	1.03268E5	3157.61575
0.21190	1.03185E5	3156.61575
0.21096	1.03102E5	3155.61575
0.21001	1.03020E5	3154.61575
0.20908	1.02937E5	3153.61575
0.20815	1.02855E5	3152.61575
0.20722	1.02774E5	3151.61575
0.20630	1.02692E5	3150.61575
0.20539	1.02611E5	3149.61575
0.20448	1.02530E5	3148.61575
0.20358	1.02449E5	3147.61575
0.20269	1.02369E5	3146.61575
0.20180	1.02289E5	3145.61575
0.20091	1.02209E5	3144.61575
0.20003	1.02129E5	3143.61575
0.19916	1.02050E5	3142.61575
0.19829	1.01971E5	3141.61575
0.19743	1.01892E5	3140.61575
0.19657	1.01813E5	3139.61575
0.19572	1.01735E5	3138.61575
0.19487	1.01656E5	3137.61575
0.19403	1.01578E5	3136.61575
0.19319	1.01501E5	3135.61575
0.19236	1.01423E5	3134.61575
0.19153	1.01346E5	3133.61575
0.19071	1.01269E5	3132.61575
0.18990	1.01192E5	3131.61575
0.18908	1.01115E5	3130.61575
0.18828	1.01039E5	3129.61575
0.18748	1.00963E5	3128.61575
0.18668	1.00887E5	3127.61575
0.18589	1.00811E5	3126.61575
0.18510	1.00736E5	3125.61575
0.18432	1.00660E5	3124.61575
0.18354	1.00585E5	3123.61575
0.18277	1.00510E5	3122.61575
0.18200	1.00436E5	3121.61575
0.18124	1.00361E5	3120.61575
0.18048	1.00287E5	3119.61575
0.17972	1.00213E5	3118.61575
0.17897	1.00139E5	3117.61575
0.17823	1.00065E5	3116.61575
0.17748	99991.88098	3115.61575
0.17675	99918.63084	3114.61575
0.17601	99845.57715	3113.61575
0.17529	99772.71840	3112.61575
0.17456	99700.05310	3111.61575
0.17384	99627.57980	3110.61575
0.17313	99555.29702	3109.61575
0.17241	99483.20333	3108.61575
0.17171	99411.29730	3107.61575
0.17100	99339.57752	3106.61575
0.17030	99268.04258	3105.61575
0.16961	99196.69110	3104.61575
0.16892	99125.52170	3103.61575
0.16823	99054.53302	3102.61575
0.16755	98983.72371	3101.61575
0.16687	98913.09243	3100.61575
0.16619	98842.63787	3099.61575
0.16552	98772.35870	3098.61575
0.16486	98702.25364	3097.61575
0.16419	98632.32140	3096.61575
0.16353	98562.56069	3095.61575
0.16288	98492.97027	3094.61575
0.16222	98423.54888	3093.61575
0.16157	98354.29528	3092.61575
0.16093	98285.20824	3091.61575
0.16029	98216.28656	3090.61575
0.15965	98147.52901	3089.61575
0.15902	98078.93442	3088.61575
0.15839	98010.50160	3087.61575
0.15776	97942.22938	3086.61575
0.15713	97874.11660	3085.61575
0.15651	97806.16211	3084.61575
0.15590	97738.36476	3083.61575
0.15529	97670.72344	3082.61575
0.15468	97603.23703	3081.61575
0.15407	97535.90441	3080.61575
0.15347	97468.72449	3079.61575
0.15287	97401.69618	3078.61575
0.15227	97334.81841	3077.61575
0.15168	97268.09010	3076.61575
0.15109	97201.51020	3075.61575
0.15050	97135.07766	3074.61575
0.14992	97068.79144	3073.61575
0.14934	97002.65052	3072.61575
0.14876	96936.65386	3071.61575
0.14819	96870.80047	3070.61575
0.14762	96805.08933	3069.61575
0.14705	96739.51946	3068.61575
0.14648	96674.08987	3067.61575
0.14592	96608.79959	3066.61575
0.14536	96543.64765	3065.61575
0.14481	96478.63309	3064.61575
0.14426	96413.75497	3063.61575
0.14371	96349.01234	3062.61575
0.14316	96284.40427	3061.61575
0.14262	96219.92983	3060.61575
0.14208	96155.58812	3059.61575
0.14154	96091.37822	3058.61575
0.14101	96027.29924	3057.61575
0.14047	95963.35028	3056.61575
0.13994	95899.53045	3055.61575
0.13942	95835.83889	3054.61575
0.13890	95772.27473	3053.61575
0.13837	95708.83709	3052.61575
0.13786	95645.52514	3051.61575
0.13734	95582.33802	3050.61575
0.13683	95519.27490	3049.61575
0.13632	95456.33494	3048.61575
0.13581	95393.51732	3047.61575
0.13531	95330.82123	3046.61575
0.13481	95268.24585	3045.61575
0.13431	95205.79039	3044.61575
0.13381	95143.45404	3043.61575
0.13332	95081.23603	3042.61575
0.13283	95019.13556	3041.61575
0.13234	94957.15186	3040.61575
0.13185	94895.28416	3039.61575
0.13137	94833.53171	3038.61575
0.13089	94771.89374	3037.61575
0.13041	94710.36951	3036.61575
0.12993	94648.95828	3035.61575
0.12946	94587.65930	3034.61575
0.12899	94526.47186	3033.61575
0.12852	94465.39522	3032.61575
0.12805	94404.42867	3031.61575
0.12759	94343.57149	3030.61575
0.12713	94282.82299	3029.61575
0.12667	94222.18246	3028.61575
0.12621	94161.64920	3027.61575
0.12575	94101.22254	3026.61575
0.12530	94040.90179	3025.61575
0.12485	93980.68627	3024.61575
0.12440	93920.57532	3023.61575
0.12396	93860.56826	3022.61575
0.12352	93800.66444	3021.61575
0.12307	93740.86321	3020.61575
0.12264	93681.16392	3019.61575
0.12220	93621.56592	3018.61575
0.12176	93562.06858	3017.61575
0.12133	93502.67126	3016.61575
0.12090	93443.37334	3015.61575
0.12047	93384.17420	3014.61575
0.12005	93325.07322	3013.61575
0.11962	93266.06979	3012.61575
0.11920	93207.16330	3011.61575
0.11878	93148.35314	3010.61575
0.11837	93089.63874	3009.61575
0.11795	93031.01949	3008.61575
0.11754	92972.49480	3007.61575
0.11713	92914.06410	3006.61575
0.11672	92855.72680	3005.61575
0.11631	92797.48234	3004.61575
0.11590	92739.33015	3003.61575
0.11550	92681.26966	3002.61575
0.11510	92623.30031	3001.61575
0.11470	92565.42156	3000.61575
0.11430	92507.63285	2999.61575
0.11391	92449.93364	2998.61575
0.11351	92392.32338	2997.61575
0.11312	92334.80154	2996.61575
0.11273	92277.36759	2995.61575
0.11235	92220.02100	2994.61575
0.11196	92162.76125	2993.61575
0.11158	92105.58782	2992.61575
0.11119	92048.50019	2991.61575
0.11081	91991.49785	2990.61575
0.11043	91934.58029	2989.61575
0.11006	91877.74702	2988.61575
0.10968	91820.99753	2987.61575
0.10931	91764.33133	2986.61575
0.10894	91707.74793	2985.61575
0.10857	91651.24684	2984.61575
0.10820	91594.82757	2983.61575
0.10783	91538.48966	2982.61575
0.10747	91482.23262	2981.61575
0.10711	91426.05598	2980.61575
0.10675	91369.95927	2979.61575
0.10639	91313.94203	2978.61575
0.10603	91258.00380	2977.61575
0.10567	91202.14412	2976.61575
0.10532	91146.36254	2975.61575
0.10497	91090.65861	2974.61575
0.10462	91035.03187	2973.61575
0.10427	90979.48190	2972.61575
0.10392	90924.00824	2971.61575
0.10357	90868.61047	2970.61575
0.10323	90813.28815	2969.61575
0.10289	90758.04085	2968.61575
0.10255	90702.86814	2967.61575
0.10221	90647.76961	2966.61575
0.10187	90592.74483	2965.61575
0.10153	90537.79339	2964.61575
0.10120	90482.91487	2963.61575
0.10086	90428.10886	2962.61575
0.10053	90373.37496	2961.61575
0.10020	90318.71277	2960.61575
0.09987	90264.12188	2959.61575
0.09955	90209.60189	2958.61575
0.09922	90155.15242	2957.61575
0.09890	90100.77307	2956.61575
0.09857	90046.46345	2955.61575
0.09825	89992.22318	2954.61575
0.09793	89938.05187	2953.61575
0.09762	89883.94915	2952.61575
0.09730	89829.91464	2951.61575
0.09698	89775.94796	2950.61575
0.09667	89722.04875	2949.61575
0.09636	89668.21663	2948.61575
0.09605	89614.45124	2947.61575
0.09574	89560.75222	2946.61575
0.09543	89507.11921	2945.61575
0.09512	89453.55184	2944.61575
0.09481	89400.04978	2943.61575
0.09451	89346.61266	2942.61575
0.09421	89293.24013	2941.61575
0.09391	89239.93186	2940.61575
0.09361	89186.68749	2939.61575
0.09331	89133.50668	2938.61575
0.09301	89080.38909	2937.61575
0.09271	89027.33440	2936.61575
0.09242	88974.34226	2935.61575
0.09212	88921.41234	2934.61575
0.09183	88868.54431	2933.61575
0.09154	88815.73786	2932.61575
0.09125	88762.99264	2931.61575
0.09096	88710.30835	2930.61575
0.09068	88657.68466	2929.61575
0.09039	88605.12126	2928.61575
0.09011	88552.61782	2927.61575
0.08982	88500.17405	2926.61575
0.08954	88447.78962	2925.61575
0.08926	88395.46424	2924.61575
0.08898	88343.19759	2923.61575
0.08870	88290.98937	2922.61575
0.08842	88238.83928	2921.61575
0.08815	88186.74702	2920.61575
0.08787	88134.71230	2919.61575
0.08760	88082.73482	2918.61575
0.08733	88030.81429	2917.61575
0.08706	87978.95042	2916.61575
0.08679	87927.14291	2915.61575
0.08652	87875.39149	2914.61575
0.08625	87823.69587	2913.61575
0.08598	87772.05577	2912.61575
0.08572	87720.47090	2911.61575
0.08545	87668.94100	2910.61575
0.08519	87617.46577	2909.61575
0.08493	87566.04496	2908.61575
0.08467	87514.67829	2907.61575
0.08441	87463.36548	2906.61575
0.08415	87412.10627	2905.61575
0.08389	87360.90040	2904.61575
0.08363	87309.74759	2903.61575
0.08338	87258.64759	2902.61575
0.08312	87207.60014	2901.61575
0.08287	87156.60497	2900.61575
0.08262	87105.66184	2899.61575
0.08237	87054.77047	2898.61575
0.08212	87003.93064	2897.61575
0.08187	86953.14207	2896.61575
0.08162	86902.40452	2895.61575
0.08137	86851.71775	2894.61575
0.08113	86801.08150	2893.61575
0.08088	86750.49553	2892.61575
0.08064	86699.95961	2891.61575
0.08040	86649.47348	2890.61575
0.08015	86599.03691	2889.61575
0.07991	86548.64966	2888.61575
0.07967	86498.31150	2887.61575
0.07943	86448.02218	2886.61575
0.07920	86397.78149	2885.61575
0.07896	86347.58918	2884.61575
0.07872	86297.44503	2883.61575
0.07849	86247.34881	2882.61575
0.07825	86197.30030	2881.61575
0.07802	86147.29926	2880.61575
0.07779	86097.34547	2879.61575
0.07756	86047.43872	2878.61575
0.07733	85997.57879	2877.61575
0.07710	85947.76545	2876.61575
0.07687	85897.99848	2875.61575
0.07664	85848.27768	2874.61575
0.07642	85798.60282	2873.61575
0.07619	85748.97370	2872.61575
0.07597	85699.39011	2871.61575
0.07574	85649.85182	2870.61575
0.07552	85600.35865	2869.61575
0.07530	85550.91037	2868.61575
0.07508	85501.50678	2867.61575
0.07486	85452.14769	2866.61575
0.07464	85402.83288	2865.61575
0.07442	85353.56215	2864.61575
0.07420	85304.33531	2863.61575
0.07399	85255.15216	2862.61575
0.07377	85206.01250	2861.61575
0.07356	85156.91612	2860.61575
0.07334	85107.86285	2859.61575
0.07313	85058.85248	2858.61575
0.07292	85009.88483	2857.61575
0.07271	84960.95969	2856.61575
0.07249	84912.07689	2855.61575
0.07228	84863.23624	2854.61575
0.07208	84814.43754	2853.61575
0.07187	84765.68062	2852.61575
0.07166	84716.96528	2851.61575
0.07145	84668.29134	2850.61575
0.07125	84619.65863	2849.61575
0.07104	84571.06696	2848.61575
0.07084	84522.51616	2847.61575
0.07064	84474.00603	2846.61575
0.07043	84425.53642	2845.61575
0.07023	84377.10713	2844.61575
0.07003	84328.71800	2843.61575
0.06983	84280.36885	2842.61575
0.06963	84232.05951	2841.61575
0.06943	84183.78981	2840.61575
0.06924	84135.55958	2839.61575
0.06904	84087.36864	2838.61575
0.06884	84039.21684	2837.61575
0.06865	83991.10400	2836.61575
0.06845	83943.02996	2835.61575
0.06826	83894.99455	2834.61575
0.06807	83846.99761	2833.61575
0.06787	83799.03898	2832.61575
0.06768	83751.11849	2831.61575
0.06749	83703.23599	2830.61575
0.06730	83655.39131	2829.61575
0.06711	83607.58430	2828.61575
0.06692	83559.81480	2827.61575
0.06674	83512.08266	2826.61575
0.06655	83464.38771	2825.61575
0.06636	83416.72980	2824.61575
0.06618	83369.10879	2823.61575
0.06599	83321.52451	2822.61575
0.06581	83273.97682	2821.61575
0.06562	83226.46557	2820.61575
0.06544	83178.99060	2819.61575
0.06526	83131.55177	2818.61575
0.06508	83084.14893	2817.61575
0.06489	83036.78194	2816.61575
0.06471	82989.45065	2815.61575
0.06453	82942.15491	2814.61575
0.06436	82894.89458	2813.61575
0.06418	82847.66951	2812.61575
0.06400	82800.47958	2811.61575
0.06382	82753.32463	2810.61575
0.06365	82706.20452	2809.61575
0.06347	82659.11912	2808.61575
0.06330	82612.06828	2807.61575
0.06312	82565.05187	2806.61575
0.06295	82518.06976	2805.61575
0.06278	82471.12180	2804.61575
0.06260	82424.20787	2803.61575
0.06243	82377.32782	2802.61575
0.06226	82330.48153	2801.61575
0.06209	82283.66887	2800.61575
0.06192	82236.88969	2799.61575
0.06175	82190.14387	2798.61575
0.06158	82143.43129	2797.61575
0.06141	82096.75180	2796.61575
0.06125	82050.10529	2795.61575
0.06108	82003.49163	2794.61575
0.06091	81956.91069	2793.61575
0.06075	81910.36233	2792.61575
0.06058	81863.84645	2791.61575
0.06042	81817.36291	2790.61575
0.06026	81770.91160	2789.61575
0.06009	81724.49238	2788.61575
0.05993	81678.10514	2787.61575
0.05977	81631.74975	2786.61575
0.05961	81585.42609	2785.61575
0.05945	81539.13406	2784.61575
0.05929	81492.87351	2783.61575
0.05913	81446.64435	2782.61575
0.05897	81400.44644	2781.61575
0.05881	81354.27968	2780.61575
0.05865	81308.14395	2779.61575
0.05849	81262.03912	2778.61575
0.05834	81215.96510	2777.61575
0.05818	81169.92176	2776.61575
0.05803	81123.90898	2775.61575
0.05787	81077.92667	2774.61575
0.05772	81031.97470	2773.61575
0.05756	80986.05297	2772.61575
0.05741	80940.16136	2771.61575
0.05726	80894.29976	2770.61575
0.05710	80848.46807	2769.61575
0.05695	80802.66618	2768.61575
0.05680	80756.89397	2767.61575
0.05665	80711.15135	2766.61575
0.05650	80665.43820	2765.61575
0.05635	80619.75443	2764.61575
0.05620	80574.09991	2763.61575
0.05605	80528.47456	2762.61575
0.05591	80482.87826	2761.61575
0.05576	80437.31091	2760.61575
0.05561	80391.77241	2759.61575
0.05547	80346.26266	2758.61575
0.05532	80300.78156	2757.61575
0.05517	80255.32900	2756.61575
0.05503	80209.90489	2755.61575
0.05488	80164.50912	2754.61575
0.05474	80119.14160	2753.61575
0.05460	80073.80222	2752.61575
0.05445	80028.49090	2751.61575
0.05431	79983.20753	2750.61575
0.05417	79937.95201	2749.61575
