Mole fraction of liquid	Heat per mole [J]	Temperature [K]
1.00000	1.52261E5	3457.44235
0.99994	1.52254E5	3457.34672
0.98969	1.51722E5	3456.34672
0.97959	1.51197E5	3455.34672
0.96963	1.50680E5	3454.34672
0.95981	1.50169E5	3453.34672
0.95014	1.49665E5	3452.34672
0.94060	1.49167E5	3451.34672
0.93119	1.48677E5	3450.34672
0.92192	1.48192E5	3449.34672
0.91278	1.47714E5	3448.34672
0.90377	1.47243E5	3447.34672
0.89488	1.46777E5	3446.34672
0.88612	1.46317E5	3445.34672
0.87748	1.45864E5	3444.34672
0.86895	1.45416E5	3443.34672
0.86054	1.44973E5	3442.34672
0.85225	1.44536E5	3441.34672
0.84407	1.44105E5	3440.34672
0.83600	1.43679E5	3439.34672
0.82804	1.43259E5	3438.34672
0.82019	1.42843E5	3437.34672
0.81244	1.42433E5	3436.34672
0.80479	1.42027E5	3435.34672
0.79725	1.41627E5	3434.34672
0.78980	1.41231E5	3433.34672
0.78246	1.40840E5	3432.34672
0.77520	1.40454E5	3431.34672
0.76805	1.40073E5	3430.34672
0.76099	1.39696E5	3429.34672
0.75402	1.39323E5	3428.34672
0.74714	1.38954E5	3427.34672
0.74034	1.38590E5	3426.34672
0.73364	1.38231E5	3425.34672
0.72702	1.37875E5	3424.34672
0.72048	1.37523E5	3423.34672
0.71403	1.37176E5	3422.34672
0.70766	1.36832E5	3421.34672
0.70137	1.36492E5	3420.34672
0.69516	1.36156E5	3419.34672
0.68903	1.35824E5	3418.34672
0.68297	1.35495E5	3417.34672
0.67699	1.35170E5	3416.34672
0.67108	1.34849E5	3415.34672
0.66524	1.34531E5	3414.34672
0.65948	1.34217E5	3413.34672
0.65378	1.33906E5	3412.34672
0.64816	1.33598E5	3411.34672
0.64260	1.33294E5	3410.34672
0.63711	1.32992E5	3409.34672
0.63169	1.32694E5	3408.34672
0.62633	1.32400E5	3407.34672
0.62104	1.32108E5	3406.34672
0.61581	1.31819E5	3405.34672
0.61064	1.31533E5	3404.34672
0.60553	1.31251E5	3403.34672
0.60049	1.30971E5	3402.34672
0.59550	1.30694E5	3401.34672
0.59057	1.30420E5	3400.34672
0.58570	1.30148E5	3399.34672
0.58088	1.29879E5	3398.34672
0.57613	1.29613E5	3397.34672
0.57142	1.29350E5	3396.34672
0.56677	1.29089E5	3395.34672
0.56218	1.28831E5	3394.34672
0.55763	1.28575E5	3393.34672
0.55314	1.28322E5	3392.34672
0.54870	1.28071E5	3391.34672
0.54431	1.27823E5	3390.34672
0.53997	1.27577E5	3389.34672
0.53568	1.27333E5	3388.34672
0.53143	1.27092E5	3387.34672
0.52724	1.26853E5	3386.34672
0.52309	1.26616E5	3385.34672
0.51898	1.26381E5	3384.34672
0.51493	1.26149E5	3383.34672
0.51091	1.25918E5	3382.34672
0.50694	1.25690E5	3381.34672
0.50302	1.25464E5	3380.34672
0.49913	1.25240E5	3379.34672
0.49529	1.25018E5	3378.34672
0.49150	1.24798E5	3377.34672
0.48774	1.24580E5	3376.34672
0.48402	1.24364E5	3375.34672
0.48034	1.24149E5	3374.34672
0.47671	1.23937E5	3373.34672
0.47311	1.23726E5	3372.34672
0.46955	1.23518E5	3371.34672
0.46603	1.23311E5	3370.34672
0.46254	1.23106E5	3369.34672
0.45909	1.22902E5	3368.34672
0.45568	1.22701E5	3367.34672
0.45230	1.22501E5	3366.34672
0.44896	1.22303E5	3365.34672
0.44566	1.22106E5	3364.34672
0.44238	1.21911E5	3363.34672
0.43915	1.21718E5	3362.34672
0.43594	1.21526E5	3361.34672
0.43277	1.21336E5	3360.34672
0.42963	1.21148E5	3359.34672
0.42653	1.20961E5	3358.34672
0.42345	1.20775E5	3357.34672
0.42041	1.20591E5	3356.34672
0.41739	1.20408E5	3355.34672
0.41441	1.20227E5	3354.34672
0.41146	1.20048E5	3353.34672
0.40854	1.19869E5	3352.34672
0.40564	1.19692E5	3351.34672
0.40278	1.19517E5	3350.34672
0.39994	1.19343E5	3349.34672
0.39714	1.19170E5	3348.34672
0.39436	1.18998E5	3347.34672
0.39160	1.18828E5	3346.34672
0.38888	1.18659E5	3345.34672
0.38618	1.18492E5	3344.34672
0.38351	1.18325E5	3343.34672
0.38086	1.18160E5	3342.34672
0.37824	1.17996E5	3341.34672
0.37565	1.17834E5	3340.34672
0.37308	1.17672E5	3339.34672
0.37053	1.17512E5	3338.34672
0.36801	1.17352E5	3337.34672
0.36552	1.17194E5	3336.34672
0.36305	1.17038E5	3335.34672
0.36060	1.16882E5	3334.34672
0.35817	1.16727E5	3333.34672
0.35577	1.16573E5	3332.34672
0.35339	1.16421E5	3331.34672
0.35103	1.16270E5	3330.34672
0.34870	1.16119E5	3329.34672
0.34639	1.15970E5	3328.34672
0.34409	1.15821E5	3327.34672
0.34182	1.15674E5	3326.34672
0.33958	1.15528E5	3325.34672
0.33735	1.15382E5	3324.34672
0.33514	1.15238E5	3323.34672
0.33295	1.15095E5	3322.34672
0.33079	1.14952E5	3321.34672
0.32864	1.14811E5	3320.34672
0.32651	1.14670E5	3319.34672
0.32441	1.14531E5	3318.34672
0.32232	1.14392E5	3317.34672
0.32025	1.14254E5	3316.34672
0.31820	1.14117E5	3315.34672
0.31617	1.13981E5	3314.34672
0.31415	1.13846E5	3313.34672
0.31216	1.13711E5	3312.34672
0.31018	1.13578E5	3311.34672
0.30822	1.13445E5	3310.34672
0.30627	1.13313E5	3309.34672
0.30435	1.13182E5	3308.34672
0.30244	1.13052E5	3307.34672
0.30055	1.12923E5	3306.34672
0.29867	1.12794E5	3305.34672
0.29682	1.12666E5	3304.34672
0.29497	1.12539E5	3303.34672
0.29315	1.12413E5	3302.34672
0.29134	1.12287E5	3301.34672
0.28954	1.12162E5	3300.34672
0.28777	1.12038E5	3299.34672
0.28600	1.11915E5	3298.34672
0.28426	1.11792E5	3297.34672
0.28252	1.11670E5	3296.34672
0.28080	1.11549E5	3295.34672
0.27910	1.11428E5	3294.34672
0.27741	1.11308E5	3293.34672
0.27574	1.11189E5	3292.34672
0.27408	1.11071E5	3291.34672
0.27243	1.10953E5	3290.34672
0.27080	1.10836E5	3289.34672
0.26918	1.10719E5	3288.34672
0.26758	1.10603E5	3287.34672
0.26599	1.10488E5	3286.34672
0.26441	1.10373E5	3285.34672
0.26285	1.10259E5	3284.34672
0.26129	1.10146E5	3283.34672
0.25976	1.10033E5	3282.34672
0.25823	1.09921E5	3281.34672
0.25672	1.09809E5	3280.34672
0.25522	1.09698E5	3279.34672
0.25373	1.09588E5	3278.34672
0.25225	1.09478E5	3277.34672
0.25079	1.09369E5	3276.34672
0.24934	1.09260E5	3275.34672
0.24790	1.09152E5	3274.34672
0.24647	1.09044E5	3273.34672
0.24505	1.08937E5	3272.34672
0.24365	1.08830E5	3271.34672
0.24225	1.08724E5	3270.34672
0.24087	1.08619E5	3269.34672
0.23950	1.08514E5	3268.34672
0.23814	1.08410E5	3267.34672
0.23679	1.08306E5	3266.34672
0.23545	1.08202E5	3265.34672
0.23412	1.08099E5	3264.34672
0.23281	1.07997E5	3263.34672
0.23150	1.07895E5	3262.34672
0.23020	1.07794E5	3261.34672
0.22891	1.07693E5	3260.34672
0.22764	1.07592E5	3259.34672
0.22637	1.07492E5	3258.34672
0.22512	1.07393E5	3257.34672
0.22387	1.07293E5	3256.34672
0.22263	1.07195E5	3255.34672
0.22141	1.07097E5	3254.34672
0.22019	1.06999E5	3253.34672
0.21898	1.06902E5	3252.34672
0.21778	1.06805E5	3251.34672
0.21659	1.06708E5	3250.34672
0.21541	1.06612E5	3249.34672
0.21424	1.06517E5	3248.34672
0.21308	1.06422E5	3247.34672
0.21192	1.06327E5	3246.34672
0.21078	1.06233E5	3245.34672
0.20964	1.06139E5	3244.34672
0.20851	1.06045E5	3243.34672
0.20740	1.05952E5	3242.34672
0.20629	1.05860E5	3241.34672
0.20518	1.05767E5	3240.34672
0.20409	1.05675E5	3239.34672
0.20300	1.05584E5	3238.34672
0.20193	1.05493E5	3237.34672
0.20086	1.05402E5	3236.34672
0.19980	1.05312E5	3235.34672
0.19874	1.05221E5	3234.34672
0.19770	1.05132E5	3233.34672
0.19666	1.05043E5	3232.34672
0.19563	1.04954E5	3231.34672
0.19461	1.04865E5	3230.34672
0.19359	1.04777E5	3229.34672
0.19258	1.04689E5	3228.34672
0.19158	1.04601E5	3227.34672
0.19059	1.04514E5	3226.34672
0.18960	1.04427E5	3225.34672
0.18862	1.04341E5	3224.34672
0.18765	1.04255E5	3223.34672
0.18669	1.04169E5	3222.34672
0.18573	1.04083E5	3221.34672
0.18478	1.03998E5	3220.34672
0.18384	1.03913E5	3219.34672
0.18290	1.03829E5	3218.34672
0.18197	1.03745E5	3217.34672
0.18105	1.03661E5	3216.34672
0.18013	1.03577E5	3215.34672
0.17922	1.03494E5	3214.34672
0.17832	1.03411E5	3213.34672
0.17742	1.03328E5	3212.34672
0.17653	1.03246E5	3211.34672
0.17564	1.03163E5	3210.34672
0.17476	1.03082E5	3209.34672
0.17389	1.03000E5	3208.34672
0.17302	1.02919E5	3207.34672
0.17216	1.02838E5	3206.34672
0.17131	1.02757E5	3205.34672
0.17046	1.02677E5	3204.34672
0.16962	1.02597E5	3203.34672
0.16878	1.02517E5	3202.34672
0.16795	1.02437E5	3201.34672
0.16713	1.02358E5	3200.34672
0.16631	1.02279E5	3199.34672
0.16549	1.02200E5	3198.34672
0.16469	1.02122E5	3197.34672
0.16388	1.02044E5	3196.34672
0.16309	1.01966E5	3195.34672
0.16229	1.01888E5	3194.34672
0.16151	1.01810E5	3193.34672
0.16073	1.01733E5	3192.34672
0.15995	1.01656E5	3191.34672
0.15918	1.01579E5	3190.34672
0.15842	1.01503E5	3189.34672
0.15766	1.01427E5	3188.34672
0.15690	1.01351E5	3187.34672
0.15615	1.01275E5	3186.34672
0.15541	1.01199E5	3185.34672
0.15467	1.01124E5	3184.34672
0.15393	1.01049E5	3183.34672
0.15320	1.00974E5	3182.34672
0.15248	1.00900E5	3181.34672
0.15176	1.00825E5	3180.34672
0.15104	1.00751E5	3179.34672
0.15033	1.00677E5	3178.34672
0.14963	1.00604E5	3177.34672
0.14892	1.00530E5	3176.34672
0.14823	1.00457E5	3175.34672
0.14754	1.00384E5	3174.34672
0.14685	1.00311E5	3173.34672
0.14616	1.00238E5	3172.34672
0.14549	1.00166E5	3171.34672
0.14481	1.00094E5	3170.34672
0.14414	1.00022E5	3169.34672
0.14348	99949.87692	3168.34672
0.14281	99878.28617	3167.34672
0.14216	99806.89682	3166.34672
0.14151	99735.70721	3165.34672
0.14086	99664.71571	3164.34672
0.14021	99593.92068	3163.34672
0.13957	99523.32052	3162.34672
0.13894	99452.91363	3161.34672
0.13830	99382.69845	3160.34672
0.13768	99312.67341	3159.34672
0.13705	99242.83698	3158.34672
0.13643	99173.18762	3157.34672
0.13582	99103.72382	3156.34672
0.13520	99034.44410	3155.34672
0.13460	98965.34697	3154.34672
0.13399	98896.43096	3153.34672
0.13339	98827.69463	3152.34672
0.13279	98759.13655	3151.34672
0.13220	98690.75529	3150.34672
0.13161	98622.54945	3149.34672
0.13102	98554.51764	3148.34672
0.13044	98486.65847	3147.34672
0.12986	98418.97060	3146.34672
0.12929	98351.45266	3145.34672
0.12872	98284.10333	3144.34672
0.12815	98216.92128	3143.34672
0.12758	98149.90520	3142.34672
0.12702	98083.05380	3141.34672
0.12647	98016.36580	3140.34672
0.12591	97949.83992	3139.34672
0.12536	97883.47490	3138.34672
0.12481	97817.26951	3137.34672
0.12427	97751.22252	3136.34672
0.12373	97685.33269	3135.34672
0.12319	97619.59883	3134.34672
0.12266	97554.01973	3133.34672
0.12213	97488.59422	3132.34672
0.12160	97423.32112	3131.34672
0.12108	97358.19927	3130.34672
0.12055	97293.22752	3129.34672
0.12004	97228.40474	3128.34672
0.11952	97163.72979	3127.34672
0.11901	97099.20156	3126.34672
0.11850	97034.81895	3125.34672
0.11799	96970.58085	3124.34672
0.11749	96906.48620	3123.34672
0.11699	96842.53391	3122.34672
0.11650	96778.72292	3121.34672
0.11600	96715.05218	3120.34672
0.11551	96651.52065	3119.34672
0.11502	96588.12729	3118.34672
0.11454	96524.87109	3117.34672
0.11406	96461.75102	3116.34672
0.11358	96398.76610	3115.34672
0.11310	96335.91531	3114.34672
0.11262	96273.19769	3113.34672
0.11215	96210.61226	3112.34672
0.11169	96148.15804	3111.34672
0.11122	96085.83409	3110.34672
0.11076	96023.63946	3109.34672
0.11030	95961.57322	3108.34672
0.10984	95899.63442	3107.34672
0.10938	95837.82215	3106.34672
0.10893	95776.13551	3105.34672
0.10848	95714.57358	3104.34672
0.10803	95653.13548	3103.34672
0.10759	95591.82032	3102.34672
0.10715	95530.62721	3101.34672
0.10671	95469.55530	3100.34672
0.10627	95408.60371	3099.34672
0.10584	95347.77160	3098.34672
0.10541	95287.05812	3097.34672
0.10498	95226.46243	3096.34672
0.10455	95165.98371	3095.34672
0.10412	95105.62112	3094.34672
0.10370	95045.37387	3093.34672
0.10328	94985.24113	3092.34672
0.10286	94925.22211	3091.34672
0.10245	94865.31602	3090.34672
0.10204	94805.52207	3089.34672
0.10163	94745.83948	3088.34672
0.10122	94686.26749	3087.34672
0.10081	94626.80533	3086.34672
0.10041	94567.45224	3085.34672
0.10001	94508.20748	3084.34672
0.09961	94449.07029	3083.34672
0.09921	94390.03995	3082.34672
0.09882	94331.11573	3081.34672
0.09842	94272.29690	3080.34672
0.09803	94213.58274	3079.34672
0.09764	94154.97255	3078.34672
0.09726	94096.46562	3077.34672
0.09687	94038.06126	3076.34672
0.09649	93979.75877	3075.34672
0.09611	93921.55747	3074.34672
0.09573	93863.45667	3073.34672
0.09536	93805.45572	3072.34672
0.09498	93747.55394	3071.34672
0.09461	93689.75066	3070.34672
0.09424	93632.04524	3069.34672
0.09388	93574.43703	3068.34672
0.09351	93516.92538	3067.34672
0.09315	93459.50965	3066.34672
0.09278	93402.18922	3065.34672
0.09242	93344.96345	3064.34672
0.09207	93287.83173	3063.34672
0.09171	93230.79344	3062.34672
0.09136	93173.84797	3061.34672
0.09101	93116.99471	3060.34672
0.09065	93060.23307	3059.34672
0.09031	93003.56245	3058.34672
0.08996	92946.98226	3057.34672
0.08962	92890.49192	3056.34672
0.08927	92834.09085	3055.34672
0.08893	92777.77848	3054.34672
0.08859	92721.55423	3053.34672
0.08825	92665.41754	3052.34672
0.08792	92609.36786	3051.34672
0.08759	92553.40462	3050.34672
0.08725	92497.52729	3049.34672
0.08692	92441.73531	3048.34672
0.08659	92386.02814	3047.34672
0.08627	92330.40525	3046.34672
0.08594	92274.86611	3045.34672
0.08562	92219.41019	3044.34672
0.08530	92164.03698	3043.34672
0.08498	92108.74594	3042.34672
0.08466	92053.53657	3041.34672
0.08434	91998.40836	3040.34672
0.08403	91943.36081	3039.34672
0.08371	91888.39341	3038.34672
0.08340	91833.50567	3037.34672
0.08309	91778.69710	3036.34672
0.08278	91723.96721	3035.34672
0.08247	91669.31551	3034.34672
0.08217	91614.74153	3033.34672
0.08186	91560.24480	3032.34672
0.08156	91505.82483	3031.34672
0.08126	91451.48116	3030.34672
0.08096	91397.21333	3029.34672
0.08066	91343.02089	3028.34672
0.08037	91288.90336	3027.34672
0.08007	91234.86030	3026.34672
0.07978	91180.89127	3025.34672
0.07949	91126.99581	3024.34672
0.07920	91073.17348	3023.34672
0.07891	91019.42386	3022.34672
0.07862	90965.74650	3021.34672
0.07833	90912.14097	3020.34672
0.07805	90858.60685	3019.34672
0.07777	90805.14372	3018.34672
0.07748	90751.75115	3017.34672
0.07720	90698.42872	3016.34672
0.07692	90645.17603	3015.34672
0.07665	90591.99267	3014.34672
0.07637	90538.87822	3013.34672
0.07610	90485.83229	3012.34672
0.07582	90432.85448	3011.34672
0.07555	90379.94439	3010.34672
0.07528	90327.10162	3009.34672
0.07501	90274.32579	3008.34672
0.07474	90221.61651	3007.34672
0.07448	90168.97339	3006.34672
0.07421	90116.39605	3005.34672
0.07395	90063.88413	3004.34672
0.07368	90011.43723	3003.34672
0.07342	89959.05500	3002.34672
0.07316	89906.73706	3001.34672
0.07290	89854.48304	3000.34672
0.07264	89802.29259	2999.34672
0.07239	89750.16533	2998.34672
0.07213	89698.10093	2997.34672
0.07188	89646.09901	2996.34672
0.07162	89594.15924	2995.34672
0.07137	89542.28126	2994.34672
0.07112	89490.46472	2993.34672
0.07087	89438.70928	2992.34672
0.07062	89387.01461	2991.34672
0.07038	89335.38036	2990.34672
0.07013	89283.80619	2989.34672
0.06989	89232.29178	2988.34672
0.06964	89180.83680	2987.34672
0.06940	89129.44092	2986.34672
0.06916	89078.10381	2985.34672
0.06892	89026.82515	2984.34672
0.06868	88975.60462	2983.34672
0.06844	88924.44191	2982.34672
0.06821	88873.33669	2981.34672
0.06797	88822.28866	2980.34672
0.06774	88771.29751	2979.34672
0.06751	88720.36293	2978.34672
0.06727	88669.48461	2977.34672
0.06704	88618.66225	2976.34672
0.06681	88567.89555	2975.34672
0.06658	88517.18421	2974.34672
0.06636	88466.52794	2973.34672
0.06613	88415.92644	2972.34672
0.06590	88365.37942	2971.34672
0.06568	88314.88659	2970.34672
0.06546	88264.44767	2969.34672
0.06523	88214.06237	2968.34672
0.06501	88163.73040	2967.34672
0.06479	88113.45149	2966.34672
0.06457	88063.22535	2965.34672
0.06435	88013.05172	2964.34672
0.06414	87962.93032	2963.34672
0.06392	87912.86087	2962.34672
0.06370	87862.84310	2961.34672
0.06349	87812.87675	2960.34672
0.06328	87762.96156	2959.34672
0.06306	87713.09724	2958.34672
0.06285	87663.28356	2957.34672
0.06264	87613.52023	2956.34672
0.06243	87563.80702	2955.34672
0.06222	87514.14365	2954.34672
0.06202	87464.52988	2953.34672
0.06181	87414.96545	2952.34672
0.06160	87365.45012	2951.34672
0.06140	87315.98362	2950.34672
0.06119	87266.56573	2949.34672
0.06099	87217.19618	2948.34672
0.06079	87167.87475	2947.34672
0.06059	87118.60118	2946.34672
0.06039	87069.37524	2945.34672
0.06019	87020.19669	2944.34672
0.05999	86971.06529	2943.34672
0.05979	86921.98081	2942.34672
0.05959	86872.94301	2941.34672
0.05940	86823.95167	2940.34672
0.05920	86775.00656	2939.34672
0.05901	86726.10745	2938.34672
0.05882	86677.25410	2937.34672
0.05862	86628.44630	2936.34672
0.05843	86579.68383	2935.34672
0.05824	86530.96647	2934.34672
0.05805	86482.29398	2933.34672
0.05786	86433.66616	2932.34672
0.05767	86385.08280	2931.34672
0.05749	86336.54366	2930.34672
0.05730	86288.04855	2929.34672
0.05712	86239.59725	2928.34672
0.05693	86191.18955	2927.34672
0.05675	86142.82524	2926.34672
0.05656	86094.50411	2925.34672
0.05638	86046.22597	2924.34672
0.05620	85997.99059	2923.34672
0.05602	85949.79779	2922.34672
0.05584	85901.64736	2921.34672
0.05566	85853.53909	2920.34672
0.05548	85805.47280	2919.34672
0.05530	85757.44828	2918.34672
0.05512	85709.46534	2917.34672
0.05495	85661.52379	2916.34672
0.05477	85613.62343	2915.34672
0.05460	85565.76406	2914.34672
0.05442	85517.94551	2913.34672
0.05425	85470.16758	2912.34672
0.05408	85422.43008	2911.34672
0.05391	85374.73283	2910.34672
0.05374	85327.07564	2909.34672
0.05356	85279.45832	2908.34672
0.05340	85231.88071	2907.34672
0.05323	85184.34261	2906.34672
0.05306	85136.84384	2905.34672
0.05289	85089.38423	2904.34672
0.05272	85041.96360	2903.34672
0.05256	84994.58177	2902.34672
0.05239	84947.23857	2901.34672
0.05223	84899.93383	2900.34672
0.05206	84852.66737	2899.34672
0.05190	84805.43901	2898.34672
0.05174	84758.24860	2897.34672
0.05158	84711.09596	2896.34672
0.05142	84663.98093	2895.34672
0.05125	84616.90333	2894.34672
0.05109	84569.86301	2893.34672
0.05094	84522.85979	2892.34672
0.05078	84475.89351	2891.34672
0.05062	84428.96402	2890.34672
0.05046	84382.07115	2889.34672
0.05031	84335.21474	2888.34672
0.05015	84288.39464	2887.34672
0.04999	84241.61067	2886.34672
0.04984	84194.86270	2885.34672
0.04969	84148.15056	2884.34672
0.04953	84101.47410	2883.34672
0.04938	84054.83316	2882.34672
0.04923	84008.22759	2881.34672
0.04908	83961.65725	2880.34672
0.04892	83915.12197	2879.34672
0.04877	83868.62162	2878.34672
0.04862	83822.15604	2877.34672
0.04848	83775.72508	2876.34672
0.04833	83729.32860	2875.34672
0.04818	83682.96646	2874.34672
0.04803	83636.63850	2873.34672
0.04789	83590.34459	2872.34672
0.04774	83544.08458	2871.34672
0.04759	83497.85833	2870.34672
0.04745	83451.66571	2869.34672
0.04731	83405.50656	2868.34672
0.04716	83359.38076	2867.34672
0.04702	83313.28816	2866.34672
0.04688	83267.22862	2865.34672
0.04673	83221.20202	2864.34672
0.04659	83175.20821	2863.34672
0.04645	83129.24707	2862.34672
0.04631	83083.31845	2861.34672
0.04617	83037.42223	2860.34672
0.04603	82991.55827	2859.34672
0.04589	82945.72645	2858.34672
0.04576	82899.92663	2857.34672
0.04562	82854.15868	2856.34672
0.04548	82808.42248	2855.34672
0.04535	82762.71790	2854.34672
0.04521	82717.04481	2853.34672
0.04507	82671.40308	2852.34672
0.04494	82625.79260	2851.34672
0.04480	82580.21324	2850.34672
0.04467	82534.66486	2849.34672
0.04454	82489.14736	2848.34672
0.04441	82443.66061	2847.34672
0.04427	82398.20449	2846.34672
0.04414	82352.77888	2845.34672
0.04401	82307.38365	2844.34672
0.04388	82262.01870	2843.34672
0.04375	82216.68390	2842.34672
0.04362	82171.37913	2841.34672
0.04349	82126.10428	2840.34672
0.04336	82080.85924	2839.34672
0.04323	82035.64388	2838.34672
0.04311	81990.45810	2837.34672
0.04298	81945.30178	2836.34672
0.04285	81900.17481	2835.34672
0.04273	81855.07708	2834.34672
0.04260	81810.00847	2833.34672
0.04248	81764.96887	2832.34672
0.04235	81719.95818	2831.34672
0.04223	81674.97628	2830.34672
0.04210	81630.02308	2829.34672
0.04198	81585.09845	2828.34672
0.04186	81540.20229	2827.34672
0.04174	81495.33450	2826.34672
0.04161	81450.49497	2825.34672
0.04149	81405.68359	2824.34672
0.04137	81360.90026	2823.34672
0.04125	81316.14488	2822.34672
0.04113	81271.41735	2821.34672
0.04101	81226.71755	2820.34672
0.04089	81182.04539	2819.34672
0.04077	81137.40077	2818.34672
0.04066	81092.78359	2817.34672
0.04054	81048.19375	2816.34672
0.04042	81003.63114	2815.34672
0.04030	80959.09567	2814.34672
0.04019	80914.58725	2813.34672
0.04007	80870.10576	2812.34672
0.03996	80825.65112	2811.34672
0.03984	80781.22324	2810.34672
0.03973	80736.82201	2809.34672
0.03961	80692.44733	2808.34672
0.03950	80648.09912	2807.34672
0.03938	80603.77729	2806.34672
0.03927	80559.48173	2805.34672
0.03916	80515.21235	2804.34672
0.03905	80470.96907	2803.34672
0.03893	80426.75179	2802.34672
0.03882	80382.56041	2801.34672
0.03871	80338.39486	2800.34672
0.03860	80294.25503	2799.34672
0.03849	80250.14085	2798.34672
0.03838	80206.05221	2797.34672
