Mole fraction of liquid	Heat per mole [J]	Temperature [K]
1.00000	1.52758E5	3462.06443
0.99994	1.52750E5	3461.96880
0.98934	1.52205E5	3460.96880
0.97889	1.51668E5	3459.96880
0.96860	1.51138E5	3458.96880
0.95847	1.50616E5	3457.96880
0.94848	1.50100E5	3456.96880
0.93864	1.49592E5	3455.96880
0.92894	1.49091E5	3454.96880
0.91938	1.48597E5	3453.96880
0.90997	1.48109E5	3452.96880
0.90069	1.47628E5	3451.96880
0.89154	1.47153E5	3450.96880
0.88252	1.46685E5	3449.96880
0.87363	1.46223E5	3448.96880
0.86487	1.45767E5	3447.96880
0.85624	1.45317E5	3446.96880
0.84772	1.44872E5	3445.96880
0.83932	1.44434E5	3444.96880
0.83104	1.44001E5	3443.96880
0.82288	1.43574E5	3442.96880
0.81483	1.43152E5	3441.96880
0.80689	1.42736E5	3440.96880
0.79906	1.42324E5	3439.96880
0.79133	1.41918E5	3438.96880
0.78372	1.41517E5	3437.96880
0.77620	1.41122E5	3436.96880
0.76879	1.40730E5	3435.96880
0.76148	1.40344E5	3434.96880
0.75426	1.39963E5	3433.96880
0.74714	1.39586E5	3432.96880
0.74012	1.39213E5	3431.96880
0.73319	1.38845E5	3430.96880
0.72635	1.38482E5	3429.96880
0.71960	1.38123E5	3428.96880
0.71295	1.37768E5	3427.96880
0.70637	1.37417E5	3426.96880
0.69989	1.37070E5	3425.96880
0.69348	1.36728E5	3424.96880
0.68716	1.36389E5	3423.96880
0.68092	1.36054E5	3422.96880
0.67476	1.35723E5	3421.96880
0.66868	1.35396E5	3420.96880
0.66268	1.35073E5	3419.96880
0.65676	1.34753E5	3418.96880
0.65090	1.34437E5	3417.96880
0.64513	1.34124E5	3416.96880
0.63942	1.33815E5	3415.96880
0.63379	1.33509E5	3414.96880
0.62822	1.33206E5	3413.96880
0.62273	1.32907E5	3412.96880
0.61730	1.32611E5	3411.96880
0.61194	1.32319E5	3410.96880
0.60665	1.32029E5	3409.96880
0.60142	1.31742E5	3408.96880
0.59625	1.31459E5	3407.96880
0.59115	1.31179E5	3406.96880
0.58611	1.30901E5	3405.96880
0.58113	1.30626E5	3404.96880
0.57621	1.30355E5	3403.96880
0.57135	1.30086E5	3402.96880
0.56654	1.29819E5	3401.96880
0.56180	1.29556E5	3400.96880
0.55711	1.29295E5	3399.96880
0.55247	1.29037E5	3398.96880
0.54789	1.28781E5	3397.96880
0.54336	1.28528E5	3396.96880
0.53889	1.28278E5	3395.96880
0.53447	1.28030E5	3394.96880
0.53010	1.27784E5	3393.96880
0.52578	1.27541E5	3392.96880
0.52151	1.27300E5	3391.96880
0.51729	1.27061E5	3390.96880
0.51312	1.26825E5	3389.96880
0.50899	1.26591E5	3388.96880
0.50492	1.26360E5	3387.96880
0.50088	1.26130E5	3386.96880
0.49690	1.25903E5	3385.96880
0.49296	1.25677E5	3384.96880
0.48906	1.25454E5	3383.96880
0.48521	1.25233E5	3382.96880
0.48140	1.25014E5	3381.96880
0.47763	1.24797E5	3380.96880
0.47390	1.24582E5	3379.96880
0.47022	1.24369E5	3378.96880
0.46657	1.24158E5	3377.96880
0.46297	1.23949E5	3376.96880
0.45941	1.23741E5	3375.96880
0.45588	1.23535E5	3374.96880
0.45239	1.23332E5	3373.96880
0.44894	1.23130E5	3372.96880
0.44553	1.22930E5	3371.96880
0.44215	1.22731E5	3370.96880
0.43882	1.22534E5	3369.96880
0.43551	1.22339E5	3368.96880
0.43224	1.22146E5	3367.96880
0.42901	1.21954E5	3366.96880
0.42581	1.21764E5	3365.96880
0.42264	1.21575E5	3364.96880
0.41951	1.21388E5	3363.96880
0.41641	1.21203E5	3362.96880
0.41335	1.21019E5	3361.96880
0.41031	1.20836E5	3360.96880
0.40731	1.20655E5	3359.96880
0.40434	1.20476E5	3358.96880
0.40139	1.20298E5	3357.96880
0.39848	1.20121E5	3356.96880
0.39560	1.19946E5	3355.96880
0.39275	1.19772E5	3354.96880
0.38993	1.19600E5	3353.96880
0.38714	1.19429E5	3352.96880
0.38437	1.19259E5	3351.96880
0.38163	1.19091E5	3350.96880
0.37892	1.18924E5	3349.96880
0.37624	1.18758E5	3348.96880
0.37359	1.18593E5	3347.96880
0.37096	1.18430E5	3346.96880
0.36835	1.18268E5	3345.96880
0.36578	1.18107E5	3344.96880
0.36323	1.17947E5	3343.96880
0.36070	1.17789E5	3342.96880
0.35820	1.17632E5	3341.96880
0.35572	1.17476E5	3340.96880
0.35327	1.17321E5	3339.96880
0.35084	1.17167E5	3338.96880
0.34844	1.17014E5	3337.96880
0.34606	1.16862E5	3336.96880
0.34370	1.16712E5	3335.96880
0.34137	1.16562E5	3334.96880
0.33905	1.16414E5	3333.96880
0.33676	1.16266E5	3332.96880
0.33449	1.16120E5	3331.96880
0.33225	1.15974E5	3330.96880
0.33002	1.15830E5	3329.96880
0.32782	1.15687E5	3328.96880
0.32564	1.15544E5	3327.96880
0.32347	1.15403E5	3326.96880
0.32133	1.15262E5	3325.96880
0.31921	1.15123E5	3324.96880
0.31711	1.14984E5	3323.96880
0.31502	1.14846E5	3322.96880
0.31296	1.14710E5	3321.96880
0.31092	1.14574E5	3320.96880
0.30889	1.14439E5	3319.96880
0.30689	1.14305E5	3318.96880
0.30490	1.14171E5	3317.96880
0.30293	1.14039E5	3316.96880
0.30098	1.13907E5	3315.96880
0.29904	1.13776E5	3314.96880
0.29713	1.13647E5	3313.96880
0.29523	1.13517E5	3312.96880
0.29335	1.13389E5	3311.96880
0.29148	1.13262E5	3310.96880
0.28964	1.13135E5	3309.96880
0.28781	1.13009E5	3308.96880
0.28599	1.12884E5	3307.96880
0.28419	1.12759E5	3306.96880
0.28241	1.12636E5	3305.96880
0.28065	1.12513E5	3304.96880
0.27890	1.12391E5	3303.96880
0.27716	1.12269E5	3302.96880
0.27544	1.12148E5	3301.96880
0.27374	1.12028E5	3300.96880
0.27205	1.11909E5	3299.96880
0.27037	1.11790E5	3298.96880
0.26871	1.11672E5	3297.96880
0.26707	1.11555E5	3296.96880
0.26544	1.11438E5	3295.96880
0.26382	1.11322E5	3294.96880
0.26222	1.11207E5	3293.96880
0.26063	1.11092E5	3292.96880
0.25905	1.10978E5	3291.96880
0.25749	1.10865E5	3290.96880
0.25594	1.10752E5	3289.96880
0.25440	1.10640E5	3288.96880
0.25288	1.10528E5	3287.96880
0.25137	1.10417E5	3286.96880
0.24988	1.10307E5	3285.96880
0.24839	1.10197E5	3284.96880
0.24692	1.10088E5	3283.96880
0.24546	1.09979E5	3282.96880
0.24402	1.09871E5	3281.96880
0.24258	1.09763E5	3280.96880
0.24116	1.09657E5	3279.96880
0.23975	1.09550E5	3278.96880
0.23835	1.09444E5	3277.96880
0.23696	1.09339E5	3276.96880
0.23559	1.09234E5	3275.96880
0.23422	1.09130E5	3274.96880
0.23287	1.09026E5	3273.96880
0.23153	1.08923E5	3272.96880
0.23019	1.08820E5	3271.96880
0.22887	1.08718E5	3270.96880
0.22756	1.08616E5	3269.96880
0.22626	1.08515E5	3268.96880
0.22498	1.08414E5	3267.96880
0.22370	1.08314E5	3266.96880
0.22243	1.08214E5	3265.96880
0.22117	1.08115E5	3264.96880
0.21993	1.08016E5	3263.96880
0.21869	1.07918E5	3262.96880
0.21746	1.07820E5	3261.96880
0.21624	1.07723E5	3260.96880
0.21504	1.07626E5	3259.96880
0.21384	1.07529E5	3258.96880
0.21265	1.07433E5	3257.96880
0.21147	1.07337E5	3256.96880
0.21030	1.07242E5	3255.96880
0.20914	1.07147E5	3254.96880
0.20799	1.07053E5	3253.96880
0.20684	1.06959E5	3252.96880
0.20571	1.06865E5	3251.96880
0.20458	1.06772E5	3250.96880
0.20347	1.06679E5	3249.96880
0.20236	1.06587E5	3248.96880
0.20126	1.06495E5	3247.96880
0.20017	1.06404E5	3246.96880
0.19909	1.06312E5	3245.96880
0.19801	1.06222E5	3244.96880
0.19695	1.06131E5	3243.96880
0.19589	1.06041E5	3242.96880
0.19484	1.05952E5	3241.96880
0.19380	1.05862E5	3240.96880
0.19277	1.05773E5	3239.96880
0.19174	1.05685E5	3238.96880
0.19072	1.05597E5	3237.96880
0.18971	1.05509E5	3236.96880
0.18871	1.05421E5	3235.96880
0.18772	1.05334E5	3234.96880
0.18673	1.05247E5	3233.96880
0.18575	1.05161E5	3232.96880
0.18477	1.05075E5	3231.96880
0.18381	1.04989E5	3230.96880
0.18285	1.04904E5	3229.96880
0.18190	1.04819E5	3228.96880
0.18095	1.04734E5	3227.96880
0.18002	1.04649E5	3226.96880
0.17909	1.04565E5	3225.96880
0.17816	1.04481E5	3224.96880
0.17725	1.04398E5	3223.96880
0.17634	1.04315E5	3222.96880
0.17543	1.04232E5	3221.96880
0.17454	1.04149E5	3220.96880
0.17365	1.04067E5	3219.96880
0.17276	1.03985E5	3218.96880
0.17188	1.03903E5	3217.96880
0.17101	1.03822E5	3216.96880
0.17015	1.03741E5	3215.96880
0.16929	1.03660E5	3214.96880
0.16844	1.03579E5	3213.96880
0.16759	1.03499E5	3212.96880
0.16675	1.03419E5	3211.96880
0.16592	1.03339E5	3210.96880
0.16509	1.03260E5	3209.96880
0.16426	1.03181E5	3208.96880
0.16345	1.03102E5	3207.96880
0.16264	1.03023E5	3206.96880
0.16183	1.02945E5	3205.96880
0.16103	1.02867E5	3204.96880
0.16024	1.02789E5	3203.96880
0.15945	1.02712E5	3202.96880
0.15867	1.02634E5	3201.96880
0.15789	1.02557E5	3200.96880
0.15712	1.02480E5	3199.96880
0.15635	1.02404E5	3198.96880
0.15559	1.02328E5	3197.96880
0.15483	1.02252E5	3196.96880
0.15408	1.02176E5	3195.96880
0.15334	1.02100E5	3194.96880
0.15260	1.02025E5	3193.96880
0.15186	1.01950E5	3192.96880
0.15113	1.01875E5	3191.96880
0.15040	1.01800E5	3190.96880
0.14968	1.01726E5	3189.96880
0.14897	1.01652E5	3188.96880
0.14826	1.01578E5	3187.96880
0.14755	1.01504E5	3186.96880
0.14685	1.01430E5	3185.96880
0.14615	1.01357E5	3184.96880
0.14546	1.01284E5	3183.96880
0.14477	1.01211E5	3182.96880
0.14409	1.01138E5	3181.96880
0.14341	1.01066E5	3180.96880
0.14274	1.00994E5	3179.96880
0.14207	1.00922E5	3178.96880
0.14141	1.00850E5	3177.96880
0.14075	1.00778E5	3176.96880
0.14009	1.00707E5	3175.96880
0.13944	1.00636E5	3174.96880
0.13879	1.00565E5	3173.96880
0.13815	1.00494E5	3172.96880
0.13751	1.00423E5	3171.96880
0.13688	1.00353E5	3170.96880
0.13625	1.00283E5	3169.96880
0.13562	1.00213E5	3168.96880
0.13500	1.00143E5	3167.96880
0.13438	1.00073E5	3166.96880
0.13377	1.00004E5	3165.96880
0.13316	99934.49620	3164.96880
0.13255	99865.40413	3163.96880
0.13195	99796.49424	3162.96880
0.13135	99727.76504	3161.96880
0.13076	99659.21504	3160.96880
0.13017	99590.84277	3159.96880
0.12958	99522.64678	3158.96880
0.12900	99454.62562	3157.96880
0.12842	99386.77789	3156.96880
0.12784	99319.10215	3155.96880
0.12727	99251.59703	3154.96880
0.12670	99184.26114	3153.96880
0.12614	99117.09312	3152.96880
0.12558	99050.09162	3151.96880
0.12502	98983.25529	3150.96880
0.12447	98916.58282	3149.96880
0.12392	98850.07290	3148.96880
0.12337	98783.72422	3147.96880
0.12283	98717.53551	3146.96880
0.12229	98651.50550	3145.96880
0.12175	98585.63293	3144.96880
0.12122	98519.91655	3143.96880
0.12069	98454.35513	3142.96880
0.12016	98388.94746	3141.96880
0.11963	98323.69233	3140.96880
0.11911	98258.58854	3139.96880
0.11860	98193.63492	3138.96880
0.11808	98128.83028	3137.96880
0.11757	98064.17348	3136.96880
0.11707	97999.66336	3135.96880
0.11656	97935.29880	3134.96880
0.11606	97871.07866	3133.96880
0.11556	97807.00183	3132.96880
0.11507	97743.06722	3131.96880
0.11457	97679.27372	3130.96880
0.11408	97615.62027	3129.96880
0.11360	97552.10579	3128.96880
0.11311	97488.72923	3127.96880
0.11263	97425.48952	3126.96880
0.11216	97362.38565	3125.96880
0.11168	97299.41658	3124.96880
0.11121	97236.58129	3123.96880
0.11074	97173.87878	3122.96880
0.11027	97111.30804	3121.96880
0.10981	97048.86809	3120.96880
0.10935	96986.55796	3119.96880
0.10889	96924.37667	3118.96880
0.10844	96862.32327	3117.96880
0.10798	96800.39680	3116.96880
0.10753	96738.59632	3115.96880
0.10709	96676.92091	3114.96880
0.10664	96615.36963	3113.96880
0.10620	96553.94159	3112.96880
0.10576	96492.63586	3111.96880
0.10532	96431.45157	3110.96880
0.10489	96370.38781	3109.96880
0.10446	96309.44371	3108.96880
0.10403	96248.61840	3107.96880
0.10360	96187.91101	3106.96880
0.10318	96127.32070	3105.96880
0.10276	96066.84662	3104.96880
0.10234	96006.48793	3103.96880
0.10192	95946.24379	3102.96880
0.10150	95886.11340	3101.96880
0.10109	95826.09592	3100.96880
0.10068	95766.19057	3099.96880
0.10028	95706.39653	3098.96880
0.09987	95646.71302	3097.96880
0.09947	95587.13925	3096.96880
0.09907	95527.67445	3095.96880
0.09867	95468.31784	3094.96880
0.09827	95409.06867	3093.96880
0.09788	95349.92618	3092.96880
0.09749	95290.88962	3091.96880
0.09710	95231.95825	3090.96880
0.09671	95173.13134	3089.96880
0.09633	95114.40816	3088.96880
0.09594	95055.78798	3087.96880
0.09556	94997.27010	3086.96880
0.09519	94938.85381	3085.96880
0.09481	94880.53840	3084.96880
0.09443	94822.32318	3083.96880
0.09406	94764.20747	3082.96880
0.09369	94706.19058	3081.96880
0.09333	94648.27184	3080.96880
0.09296	94590.45057	3079.96880
0.09260	94532.72612	3078.96880
0.09223	94475.09782	3077.96880
0.09187	94417.56503	3076.96880
0.09152	94360.12710	3075.96880
0.09116	94302.78339	3074.96880
0.09081	94245.53327	3073.96880
0.09045	94188.37610	3072.96880
0.09010	94131.31127	3071.96880
0.08976	94074.33817	3070.96880
0.08941	94017.45617	3069.96880
0.08907	93960.66467	3068.96880
0.08872	93903.96308	3067.96880
0.08838	93847.35080	3066.96880
0.08804	93790.82723	3065.96880
0.08771	93734.39180	3064.96880
0.08737	93678.04392	3063.96880
0.08704	93621.78302	3062.96880
0.08671	93565.60854	3061.96880
0.08638	93509.51990	3060.96880
0.08605	93453.51656	3059.96880
0.08572	93397.59795	3058.96880
0.08540	93341.76352	3057.96880
0.08508	93286.01274	3056.96880
0.08475	93230.34506	3055.96880
0.08444	93174.75994	3054.96880
0.08412	93119.25687	3053.96880
0.08380	93063.83531	3052.96880
0.08349	93008.49473	3051.96880
0.08318	92953.23464	3050.96880
0.08286	92898.05451	3049.96880
0.08256	92842.95383	3048.96880
0.08225	92787.93211	3047.96880
0.08194	92732.98884	3046.96880
0.08164	92678.12353	3045.96880
0.08133	92623.33570	3044.96880
0.08103	92568.62484	3043.96880
0.08073	92513.99050	3042.96880
0.08044	92459.43217	3041.96880
0.08014	92404.94940	3040.96880
0.07984	92350.54171	3039.96880
0.07955	92296.20864	3038.96880
0.07926	92241.94973	3037.96880
0.07897	92187.76451	3036.96880
0.07868	92133.65254	3035.96880
0.07839	92079.61337	3034.96880
0.07811	92025.64654	3033.96880
0.07782	91971.75163	3032.96880
0.07754	91917.92818	3031.96880
0.07726	91864.17577	3030.96880
0.07698	91810.49396	3029.96880
0.07670	91756.88233	3028.96880
0.07642	91703.34046	3027.96880
0.07614	91649.86791	3026.96880
0.07587	91596.46428	3025.96880
0.07560	91543.12916	3024.96880
0.07532	91489.86213	3023.96880
0.07505	91436.66278	3022.96880
0.07479	91383.53072	3021.96880
0.07452	91330.46555	3020.96880
0.07425	91277.46686	3019.96880
0.07399	91224.53427	3018.96880
0.07372	91171.66739	3017.96880
0.07346	91118.86582	3016.96880
0.07320	91066.12920	3015.96880
0.07294	91013.45712	3014.96880
0.07268	90960.84923	3013.96880
0.07242	90908.30514	3012.96880
0.07217	90855.82449	3011.96880
0.07191	90803.40690	3010.96880
0.07166	90751.05202	3009.96880
0.07141	90698.75947	3008.96880
0.07116	90646.52891	3007.96880
0.07091	90594.35997	3006.96880
0.07066	90542.25231	3005.96880
0.07041	90490.20557	3004.96880
0.07017	90438.21940	3003.96880
0.06992	90386.29346	3002.96880
0.06968	90334.42742	3001.96880
0.06944	90282.62092	3000.96880
0.06920	90230.87364	2999.96880
0.06896	90179.18523	2998.96880
0.06872	90127.55538	2997.96880
0.06848	90075.98375	2996.96880
0.06824	90024.47001	2995.96880
0.06801	89973.01384	2994.96880
0.06777	89921.61493	2993.96880
0.06754	89870.27296	2992.96880
0.06731	89818.98760	2991.96880
0.06708	89767.75855	2990.96880
0.06685	89716.58549	2989.96880
0.06662	89665.46813	2988.96880
0.06639	89614.40614	2987.96880
0.06617	89563.39924	2986.96880
0.06594	89512.44712	2985.96880
0.06572	89461.54948	2984.96880
0.06549	89410.70602	2983.96880
0.06527	89359.91646	2982.96880
0.06505	89309.18050	2981.96880
0.06483	89258.49785	2980.96880
0.06461	89207.86822	2979.96880
0.06439	89157.29134	2978.96880
0.06418	89106.76691	2977.96880
0.06396	89056.29467	2976.96880
0.06375	89005.87432	2975.96880
0.06353	88955.50560	2974.96880
0.06332	88905.18823	2973.96880
0.06311	88854.92195	2972.96880
0.06290	88804.70647	2971.96880
0.06269	88754.54154	2970.96880
0.06248	88704.42688	2969.96880
0.06227	88654.36224	2968.96880
0.06206	88604.34736	2967.96880
0.06186	88554.38197	2966.96880
0.06165	88504.46582	2965.96880
0.06145	88454.59865	2964.96880
0.06124	88404.78021	2963.96880
0.06104	88355.01025	2962.96880
0.06084	88305.28852	2961.96880
0.06064	88255.61478	2960.96880
0.06044	88205.98877	2959.96880
0.06024	88156.41025	2958.96880
0.06005	88106.87898	2957.96880
0.05985	88057.39473	2956.96880
0.05965	88007.95724	2955.96880
0.05946	87958.56630	2954.96880
0.05926	87909.22165	2953.96880
0.05907	87859.92307	2952.96880
0.05888	87810.67034	2951.96880
0.05869	87761.46321	2950.96880
0.05850	87712.30146	2949.96880
0.05831	87663.18487	2948.96880
0.05812	87614.11320	2947.96880
0.05793	87565.08625	2946.96880
0.05774	87516.10378	2945.96880
0.05756	87467.16559	2944.96880
0.05737	87418.27144	2943.96880
0.05719	87369.42113	2942.96880
0.05700	87320.61443	2941.96880
0.05682	87271.85115	2940.96880
0.05664	87223.13106	2939.96880
0.05646	87174.45396	2938.96880
0.05628	87125.81963	2937.96880
0.05610	87077.22788	2936.96880
0.05592	87028.67850	2935.96880
0.05574	86980.17127	2934.96880
0.05556	86931.70601	2933.96880
0.05539	86883.28251	2932.96880
0.05521	86834.90057	2931.96880
0.05504	86786.56000	2930.96880
0.05486	86738.26059	2929.96880
0.05469	86690.00216	2928.96880
0.05452	86641.78450	2927.96880
0.05434	86593.60743	2926.96880
0.05417	86545.47076	2925.96880
0.05400	86497.37430	2924.96880
0.05383	86449.31786	2923.96880
0.05366	86401.30125	2922.96880
0.05350	86353.32429	2921.96880
0.05333	86305.38679	2920.96880
0.05316	86257.48858	2919.96880
0.05299	86209.62946	2918.96880
0.05283	86161.80927	2917.96880
0.05266	86114.02782	2916.96880
0.05250	86066.28494	2915.96880
0.05234	86018.58044	2914.96880
0.05218	85970.91416	2913.96880
0.05201	85923.28592	2912.96880
0.05185	85875.69555	2911.96880
0.05169	85828.14288	2910.96880
0.05153	85780.62773	2909.96880
0.05137	85733.14995	2908.96880
0.05122	85685.70935	2907.96880
0.05106	85638.30578	2906.96880
0.05090	85590.93908	2905.96880
0.05074	85543.60906	2904.96880
0.05059	85496.31559	2903.96880
0.05043	85449.05848	2902.96880
0.05028	85401.83759	2901.96880
0.05013	85354.65275	2900.96880
0.04997	85307.50380	2899.96880
0.04982	85260.39059	2898.96880
0.04967	85213.31296	2897.96880
0.04952	85166.27076	2896.96880
0.04937	85119.26383	2895.96880
0.04922	85072.29202	2894.96880
0.04907	85025.35517	2893.96880
0.04892	84978.45315	2892.96880
0.04877	84931.58579	2891.96880
0.04862	84884.75295	2890.96880
0.04848	84837.95448	2889.96880
0.04833	84791.19024	2888.96880
0.04819	84744.46008	2887.96880
0.04804	84697.76385	2886.96880
0.04790	84651.10141	2885.96880
0.04775	84604.47262	2884.96880
0.04761	84557.87734	2883.96880
0.04747	84511.31542	2882.96880
0.04733	84464.78673	2881.96880
0.04718	84418.29113	2880.96880
0.04704	84371.82848	2879.96880
0.04690	84325.39865	2878.96880
0.04676	84279.00149	2877.96880
0.04662	84232.63687	2876.96880
0.04649	84186.30467	2875.96880
0.04635	84140.00474	2874.96880
0.04621	84093.73695	2873.96880
0.04607	84047.50117	2872.96880
0.04594	84001.29728	2871.96880
0.04580	83955.12514	2870.96880
0.04567	83908.98462	2869.96880
0.04553	83862.87560	2868.96880
0.04540	83816.79795	2867.96880
0.04526	83770.75154	2866.96880
0.04513	83724.73625	2865.96880
0.04500	83678.75195	2864.96880
0.04487	83632.79852	2863.96880
0.04474	83586.87583	2862.96880
0.04460	83540.98377	2861.96880
0.04447	83495.12222	2860.96880
0.04434	83449.29105	2859.96880
0.04422	83403.49014	2858.96880
0.04409	83357.71938	2857.96880
0.04396	83311.97864	2856.96880
0.04383	83266.26782	2855.96880
0.04370	83220.58679	2854.96880
0.04358	83174.93543	2853.96880
0.04345	83129.31364	2852.96880
0.04332	83083.72130	2851.96880
0.04320	83038.15829	2850.96880
0.04308	82992.62451	2849.96880
0.04295	82947.11984	2848.96880
0.04283	82901.64417	2847.96880
0.04270	82856.19739	2846.96880
0.04258	82810.77938	2845.96880
0.04246	82765.39005	2844.96880
0.04234	82720.02928	2843.96880
0.04222	82674.69697	2842.96880
0.04209	82629.39301	2841.96880
0.04197	82584.11728	2840.96880
0.04185	82538.86970	2839.96880
0.04173	82493.65014	2838.96880
0.04162	82448.45852	2837.96880
0.04150	82403.29472	2836.96880
0.04138	82358.15864	2835.96880
0.04126	82313.05018	2834.96880
0.04114	82267.96923	2833.96880
0.04103	82222.91571	2832.96880
0.04091	82177.88950	2831.96880
0.04080	82132.89051	2830.96880
0.04068	82087.91864	2829.96880
0.04057	82042.97379	2828.96880
0.04045	81998.05586	2827.96880
0.04034	81953.16476	2826.96880
0.04022	81908.30039	2825.96880
0.04011	81863.46265	2824.96880
0.04000	81818.65145	2823.96880
0.03989	81773.86669	2822.96880
0.03977	81729.10828	2821.96880
0.03966	81684.37613	2820.96880
0.03955	81639.67015	2819.96880
0.03944	81594.99023	2818.96880
0.03933	81550.33630	2817.96880
0.03922	81505.70826	2816.96880
0.03911	81461.10601	2815.96880
0.03900	81416.52948	2814.96880
0.03889	81371.97856	2813.96880
0.03879	81327.45317	2812.96880
0.03868	81282.95323	2811.96880
0.03857	81238.47864	2810.96880
0.03846	81194.02932	2809.96880
0.03836	81149.60519	2808.96880
0.03825	81105.20614	2807.96880
0.03815	81060.83211	2806.96880
0.03804	81016.48300	2805.96880
0.03793	80972.15873	2804.96880
0.03783	80927.85922	2803.96880
0.03773	80883.58439	2802.96880
0.03762	80839.33414	2801.96880
