Mole fraction of liquid	Heat per mole [J]	Temperature [K]
1.00000	1.65613E5	3649.70076
0.99970	1.65592E5	3649.60513
0.94729	1.62846E5	3648.60513
0.89868	1.60296E5	3647.60513
0.85352	1.57925E5	3646.60513
0.81150	1.55715E5	3645.60513
0.77235	1.53654E5	3644.60513
0.73581	1.51728E5	3643.60513
0.70167	1.49925E5	3642.60513
0.66972	1.48235E5	3641.60513
0.63980	1.46649E5	3640.60513
0.61173	1.45160E5	3639.60513
0.58536	1.43758E5	3638.60513
0.56058	1.42437E5	3637.60513
0.53725	1.41192E5	3636.60513
0.51527	1.40016E5	3635.60513
0.49455	1.38904E5	3634.60513
0.47498	1.37852E5	3633.60513
0.45648	1.36855E5	3632.60513
0.43899	1.35910E5	3631.60513
0.42243	1.35013E5	3630.60513
0.40674	1.34161E5	3629.60513
0.39187	1.33350E5	3628.60513
0.37775	1.32578E5	3627.60513
0.36433	1.31843E5	3626.60513
0.35159	1.31142E5	3625.60513
0.33946	1.30472E5	3624.60513
0.32792	1.29833E5	3623.60513
0.31692	1.29222E5	3622.60513
0.30644	1.28637E5	3621.60513
0.29644	1.28077E5	3620.60513
0.28690	1.27540E5	3619.60513
0.27778	1.27025E5	3618.60513
0.26907	1.26531E5	3617.60513
0.26074	1.26056E5	3616.60513
0.25277	1.25600E5	3615.60513
0.24514	1.25162E5	3614.60513
0.23783	1.24739E5	3613.60513
0.23083	1.24333E5	3612.60513
0.22411	1.23941E5	3611.60513
0.21767	1.23563E5	3610.60513
0.21149	1.23199E5	3609.60513
0.20555	1.22847E5	3608.60513
0.19985	1.22506E5	3607.60513
0.19436	1.22178E5	3606.60513
0.18909	1.21860E5	3605.60513
0.18402	1.21552E5	3604.60513
0.17913	1.21254E5	3603.60513
0.17443	1.20965E5	3602.60513
0.16990	1.20685E5	3601.60513
0.16554	1.20414E5	3600.60513
0.16133	1.20150E5	3599.60513
0.15727	1.19894E5	3598.60513
0.15336	1.19646E5	3597.60513
0.14958	1.19404E5	3596.60513
0.14593	1.19169E5	3595.60513
0.14241	1.18940E5	3594.60513
0.13900	1.18718E5	3593.60513
0.13571	1.18501E5	3592.60513
0.13253	1.18290E5	3591.60513
0.12945	1.18084E5	3590.60513
0.12648	1.17884E5	3589.60513
0.12360	1.17688E5	3588.60513
0.12081	1.17497E5	3587.60513
0.11811	1.17310E5	3586.60513
0.11549	1.17128E5	3585.60513
0.11295	1.16950E5	3584.60513
0.11050	1.16775E5	3583.60513
0.10812	1.16605E5	3582.60513
0.10581	1.16438E5	3581.60513
0.10357	1.16275E5	3580.60513
0.10139	1.16116E5	3579.60513
0.09928	1.15959E5	3578.60513
0.09723	1.15806E5	3577.60513
0.09524	1.15655E5	3576.60513
0.09331	1.15508E5	3575.60513
0.09143	1.15363E5	3574.60513
0.08961	1.15221E5	3573.60513
0.08784	1.15082E5	3572.60513
0.08611	1.14945E5	3571.60513
0.08444	1.14811E5	3570.60513
0.08281	1.14679E5	3569.60513
0.08122	1.14549E5	3568.60513
0.07967	1.14422E5	3567.60513
0.07817	1.14296E5	3566.60513
0.07671	1.14172E5	3565.60513
0.07529	1.14051E5	3564.60513
0.07390	1.13931E5	3563.60513
0.07255	1.13814E5	3562.60513
0.07123	1.13697E5	3561.60513
0.06995	1.13583E5	3560.60513
0.06870	1.13470E5	3559.60513
0.06748	1.13359E5	3558.60513
0.06629	1.13250E5	3557.60513
0.06513	1.13142E5	3556.60513
0.06400	1.13035E5	3555.60513
0.06289	1.12930E5	3554.60513
0.06182	1.12826E5	3553.60513
0.06077	1.12724E5	3552.60513
0.05974	1.12623E5	3551.60513
0.05874	1.12523E5	3550.60513
0.05776	1.12424E5	3549.60513
0.05681	1.12326E5	3548.60513
0.05588	1.12230E5	3547.60513
0.05496	1.12135E5	3546.60513
0.05407	1.12040E5	3545.60513
0.05320	1.11947E5	3544.60513
0.05235	1.11855E5	3543.60513
0.05152	1.11764E5	3542.60513
0.05071	1.11673E5	3541.60513
0.04992	1.11584E5	3540.60513
0.04914	1.11495E5	3539.60513
0.04838	1.11408E5	3538.60513
0.04763	1.11321E5	3537.60513
0.04691	1.11235E5	3536.60513
0.04620	1.11150E5	3535.60513
0.04550	1.11066E5	3534.60513
0.04482	1.10982E5	3533.60513
0.04415	1.10899E5	3532.60513
0.04350	1.10817E5	3531.60513
0.04286	1.10736E5	3530.60513
0.04223	1.10655E5	3529.60513
0.04161	1.10575E5	3528.60513
0.04101	1.10495E5	3527.60513
0.04042	1.10416E5	3526.60513
0.03985	1.10338E5	3525.60513
0.03928	1.10261E5	3524.60513
0.03873	1.10183E5	3523.60513
0.03818	1.10107E5	3522.60513
0.03765	1.10031E5	3521.60513
0.03713	1.09956E5	3520.60513
0.03662	1.09881E5	3519.60513
0.03612	1.09806E5	3518.60513
0.03562	1.09733E5	3517.60513
0.03514	1.09659E5	3516.60513
0.03467	1.09586E5	3515.60513
0.03420	1.09514E5	3514.60513
0.03375	1.09442E5	3513.60513
0.03330	1.09370E5	3512.60513
0.03286	1.09299E5	3511.60513
0.03243	1.09229E5	3510.60513
0.03201	1.09159E5	3509.60513
0.03159	1.09089E5	3508.60513
0.03118	1.09019E5	3507.60513
0.03078	1.08950E5	3506.60513
0.03039	1.08881E5	3505.60513
0.03001	1.08813E5	3504.60513
0.02963	1.08745E5	3503.60513
0.02925	1.08678E5	3502.60513
0.02889	1.08610E5	3501.60513
0.02853	1.08543E5	3500.60513
0.02818	1.08477E5	3499.60513
0.02783	1.08411E5	3498.60513
0.02749	1.08345E5	3497.60513
0.02715	1.08279E5	3496.60513
0.02682	1.08214E5	3495.60513
0.02650	1.08149E5	3494.60513
0.02618	1.08084E5	3493.60513
0.02587	1.08019E5	3492.60513
0.02556	1.07955E5	3491.60513
0.02526	1.07891E5	3490.60513
0.02496	1.07828E5	3489.60513
0.02467	1.07764E5	3488.60513
0.02438	1.07701E5	3487.60513
0.02410	1.07638E5	3486.60513
0.02382	1.07575E5	3485.60513
0.02355	1.07513E5	3484.60513
0.02328	1.07451E5	3483.60513
0.02301	1.07389E5	3482.60513
0.02275	1.07327E5	3481.60513
0.02250	1.07266E5	3480.60513
0.02225	1.07204E5	3479.60513
0.02200	1.07143E5	3478.60513
0.02175	1.07083E5	3477.60513
0.02151	1.07022E5	3476.60513
0.02127	1.06962E5	3475.60513
0.02104	1.06901E5	3474.60513
0.02081	1.06841E5	3473.60513
0.02059	1.06781E5	3472.60513
0.02036	1.06722E5	3471.60513
0.02014	1.06662E5	3470.60513
0.01993	1.06603E5	3469.60513
0.01972	1.06544E5	3468.60513
0.01951	1.06485E5	3467.60513
0.01930	1.06426E5	3466.60513
0.01910	1.06368E5	3465.60513
0.01890	1.06309E5	3464.60513
0.01870	1.06251E5	3463.60513
0.01850	1.06193E5	3462.60513
0.01831	1.06135E5	3461.60513
0.01812	1.06077E5	3460.60513
0.01794	1.06019E5	3459.60513
0.01775	1.05962E5	3458.60513
0.01757	1.05904E5	3457.60513
0.01740	1.05847E5	3456.60513
0.01722	1.05790E5	3455.60513
0.01705	1.05733E5	3454.60513
0.01688	1.05676E5	3453.60513
0.01671	1.05620E5	3452.60513
0.01654	1.05563E5	3451.60513
0.01638	1.05507E5	3450.60513
0.01622	1.05451E5	3449.60513
0.01606	1.05394E5	3448.60513
0.01590	1.05338E5	3447.60513
0.01575	1.05283E5	3446.60513
0.01559	1.05227E5	3445.60513
0.01544	1.05171E5	3444.60513
0.01530	1.05116E5	3443.60513
0.01515	1.05060E5	3442.60513
0.01500	1.05005E5	3441.60513
0.01486	1.04950E5	3440.60513
0.01472	1.04895E5	3439.60513
0.01458	1.04840E5	3438.60513
0.01445	1.04785E5	3437.60513
0.01431	1.04730E5	3436.60513
0.01418	1.04675E5	3435.60513
0.01405	1.04621E5	3434.60513
0.01392	1.04566E5	3433.60513
0.01379	1.04512E5	3432.60513
0.01366	1.04458E5	3431.60513
0.01354	1.04403E5	3430.60513
0.01341	1.04349E5	3429.60513
0.01329	1.04295E5	3428.60513
0.01317	1.04242E5	3427.60513
0.01305	1.04188E5	3426.60513
0.01294	1.04134E5	3425.60513
0.01282	1.04080E5	3424.60513
0.01271	1.04027E5	3423.60513
0.01259	1.03974E5	3422.60513
0.01248	1.03920E5	3421.60513
0.01237	1.03867E5	3420.60513
0.01226	1.03814E5	3419.60513
0.01216	1.03761E5	3418.60513
0.01205	1.03708E5	3417.60513
0.01195	1.03655E5	3416.60513
0.01184	1.03602E5	3415.60513
0.01174	1.03549E5	3414.60513
0.01164	1.03496E5	3413.60513
0.01154	1.03444E5	3412.60513
0.01144	1.03391E5	3411.60513
0.01135	1.03339E5	3410.60513
0.01125	1.03286E5	3409.60513
0.01115	1.03234E5	3408.60513
0.01106	1.03182E5	3407.60513
0.01097	1.03129E5	3406.60513
0.01088	1.03077E5	3405.60513
0.01079	1.03025E5	3404.60513
0.01070	1.02973E5	3403.60513
0.01061	1.02921E5	3402.60513
0.01052	1.02869E5	3401.60513
0.01043	1.02818E5	3400.60513
0.01035	1.02766E5	3399.60513
0.01026	1.02714E5	3398.60513
0.01018	1.02663E5	3397.60513
0.01010	1.02611E5	3396.60513
0.01002	1.02560E5	3395.60513
0.00994	1.02508E5	3394.60513
