Mole fraction of liquid	Heat per mole [J]	Temperature [K]
1.00000	88822.97090	2291.57728
0.99998	88818.43128	2291.48166
0.99676	88695.70038	2290.48166
0.99354	88573.11990	2289.48166
0.99032	88450.68866	2288.48166
0.98710	88328.40548	2287.48166
0.98389	88206.26917	2286.48166
0.98068	88084.27853	2285.48166
0.97747	87962.43238	2284.48166
0.97426	87840.72951	2283.48166
0.97106	87719.16871	2282.48166
0.96786	87597.74879	2281.48166
0.96466	87476.46851	2280.48166
0.96146	87355.32667	2279.48166
0.95826	87234.32202	2278.48166
0.95507	87113.45335	2277.48166
0.95188	86992.71941	2276.48166
0.94869	86872.11896	2275.48166
0.94550	86751.65074	2274.48166
0.94231	86631.31350	2273.48166
0.93913	86511.10597	2272.48166
0.93595	86391.02688	2271.48166
0.93276	86271.07496	2270.48166
0.92958	86151.24892	2269.48166
0.92641	86031.54745	2268.48166
0.92323	85911.96927	2267.48166
0.92005	85792.51306	2266.48166
0.91688	85673.17751	2265.48166
0.91371	85553.96128	2264.48166
0.91053	85434.86305	2263.48166
0.90736	85315.88147	2262.48166
0.90419	85197.01517	2261.48166
0.90103	85078.26281	2260.48166
0.89786	84959.62301	2259.48166
0.89469	84841.09439	2258.48166
0.89153	84722.67554	2257.48166
0.88836	84604.36507	2256.48166
0.88520	84486.16156	2255.48166
0.88203	84368.06359	2254.48166
0.87887	84250.06971	2253.48166
0.87571	84132.17848	2252.48166
0.87255	84014.38842	2251.48166
0.86939	83896.69808	2250.48166
0.86622	83779.10595	2249.48166
0.86306	83661.61054	2248.48166
0.85990	83544.21032	2247.48166
0.85674	83426.90378	2246.48166
0.85358	83309.68936	2245.48166
0.85042	83192.56550	2244.48166
0.84726	83075.53063	2243.48166
0.84410	82958.58316	2242.48166
0.84094	82841.72149	2241.48166
0.83777	82724.94397	2240.48166
0.83461	82608.24898	2239.48166
0.83145	82491.63486	2238.48166
0.82829	82375.09992	2237.48166
0.82512	82258.64247	2236.48166
0.82196	82142.26079	2235.48166
0.81879	82025.95316	2234.48166
0.81562	81909.71780	2233.48166
0.81246	81793.55295	2232.48166
0.80929	81677.45681	2231.48166
0.80612	81561.42755	2230.48166
0.80295	81445.46333	2229.48166
0.79977	81329.56229	2228.48166
0.79660	81213.72252	2227.48166
0.79342	81097.94211	2226.48166
0.79025	80982.21913	2225.48166
0.78707	80866.55159	2224.48166
0.78389	80750.93751	2223.48166
0.78070	80635.37486	2222.48166
0.77752	80519.86158	2221.48166
0.77433	80404.39559	2220.48166
0.77114	80288.97477	2219.48166
0.76795	80173.59698	2218.48166
0.76476	80058.26005	2217.48166
0.76156	79942.96175	2216.48166
0.75836	79827.69984	2215.48166
0.75516	79712.47204	2214.48166
0.75195	79597.27602	2213.48166
0.74874	79482.10944	2212.48166
0.74553	79366.96988	2211.48166
0.74232	79251.85492	2210.48166
0.73910	79136.76208	2209.48166
0.73588	79021.68883	2208.48166
0.73265	78906.63260	2207.48166
0.72942	78791.59079	2206.48166
0.72619	78676.56073	2205.48166
0.72295	78561.53972	2204.48166
0.71971	78446.52499	2203.48166
0.71646	78331.51373	2202.48166
0.71321	78216.50309	2201.48166
0.70996	78101.49012	2200.48166
0.70670	77986.47187	2199.48166
0.70343	77871.44529	2198.48166
0.70016	77756.40727	2197.48166
0.69688	77641.35466	2196.48166
0.69360	77526.28423	2195.48166
0.69031	77411.19267	2194.48166
0.68702	77296.07662	2193.48166
0.68372	77180.93264	2192.48166
0.68042	77065.75720	2191.48166
0.67711	76950.54672	2190.48166
0.67379	76835.29752	2189.48166
0.67046	76720.00583	2188.48166
0.66713	76604.66780	2187.48166
0.66379	76489.27950	2186.48166
0.66044	76373.83688	2185.48166
0.65709	76258.33583	2184.48166
0.65373	76142.77209	2183.48166
0.65036	76027.14135	2182.48166
0.64698	75911.43914	2181.48166
0.64359	75795.66090	2180.48166
0.64019	75679.80196	2179.48166
0.63679	75563.85751	2178.48166
0.63337	75447.82263	2177.48166
0.62995	75331.69224	2176.48166
0.62651	75215.46114	2175.48166
0.62307	75099.12399	2174.48166
0.61961	74982.67528	2173.48166
0.61615	74866.10937	2172.48166
0.61267	74749.42043	2171.48166
0.60918	74632.60248	2170.48166
0.60568	74515.64935	2169.48166
0.60217	74398.55468	2168.48166
0.59865	74281.31193	2167.48166
0.59511	74163.91435	2166.48166
0.59156	74046.35497	2165.48166
0.58800	73928.62661	2164.48166
0.58442	73810.72185	2163.48166
0.58082	73692.63302	2162.48166
0.57722	73574.35223	2161.48166
0.57360	73455.87126	2160.48166
0.56996	73337.18167	2159.48166
0.56630	73218.27470	2158.48166
0.56263	73099.14126	2157.48166
0.55894	72979.77197	2156.48166
0.55524	72860.15709	2155.48166
0.55152	72740.28652	2154.48166
0.54777	72620.14978	2153.48166
0.54401	72499.73600	2152.48166
0.54023	72379.03388	2151.48166
0.53643	72258.03167	2150.48166
0.53260	72136.71717	2149.48166
0.52876	72015.07766	2148.48166
0.52489	71893.09992	2147.48166
0.52100	71770.77015	2146.48166
0.51708	71648.07397	2145.48166
0.51314	71524.99639	2144.48166
0.50918	71401.52173	2143.48166
0.50518	71277.63363	2142.48166
0.50116	71153.31498	2141.48166
0.49711	71028.54786	2140.48166
0.49303	70903.31350	2139.48166
0.48892	70777.59224	2138.48166
0.48478	70651.36345	2137.48166
0.48061	70524.60545	2136.48166
0.47640	70397.29549	2135.48166
0.47216	70269.40959	2134.48166
0.46788	70140.92252	2133.48166
0.46356	70011.80771	2132.48166
0.45920	69882.03708	2131.48166
0.45480	69751.58098	2130.48166
0.45036	69620.40807	2129.48166
0.44588	69488.48515	2128.48166
0.44136	69356.13797	2127.48166
0.43678	69222.60784	2126.48166
0.43215	69088.21160	2125.48166
0.42746	68952.90663	2124.48166
0.42272	68816.64751	2123.48166
0.41792	68679.38577	2122.48166
0.41306	68541.06960	2121.48166
0.40814	68401.64355	2120.48166
0.40315	68261.04810	2119.48166
0.39809	68119.21934	2118.48166
0.39296	67976.08845	2117.48166
0.38775	67831.58119	2116.48166
0.38246	67685.61732	2115.48166
0.37708	67538.10989	2114.48166
0.37161	67388.96449	2113.48166
0.36604	67238.07834	2112.48166
0.36037	67085.33926	2111.48166
0.35459	66930.62443	2110.48166
0.34870	66773.79906	2109.48166
0.34268	66614.71468	2108.48166
0.33652	66453.20726	2107.48166
0.33023	66289.09489	2106.48166
0.32378	66122.17512	2105.48166
0.31716	65952.22164	2104.48166
0.31037	65778.98045	2103.48166
0.30338	65602.16509	2102.48166
0.29619	65421.45090	2101.48166
0.28876	65236.46796	2100.48166
0.28108	65046.79234	2099.48166
0.27312	64851.93527	2098.48166
0.26485	64651.32951	2097.48166
0.25624	64444.31226	2096.48166
0.24724	64230.10345	2095.48166
0.23782	64007.77826	2094.48166
0.22790	63776.23236	2093.48166
0.21742	63534.13850	2092.48166
0.20629	63279.89398	2091.48166
0.19442	63011.56191	2090.48166
0.18167	62726.81851	2089.48166
0.16791	62422.94405	2088.48166
0.15298	62096.95767	2087.48166
0.13672	61746.14063	2086.48166
0.11909	61369.46226	2085.48166
0.10027	60970.64855	2084.48166
0.08094	60562.73355	2083.48166
0.06236	60170.08897	2082.48166
0.04601	59821.02746	2081.48166
0.03287	59533.71687	2080.48166
0.02303	59309.74496	2079.48166
0.01598	59139.41205	2078.48166
0.01107	59009.74395	2077.48166
0.00767	58909.12107	2076.48166
