Mole fraction of liquid	Heat per mole [J]	Temperature [K]
1.00000	88519.25100	2286.96022
0.99998	88514.70555	2286.86460
0.99683	88394.27744	2285.86460
0.99368	88273.99830	2284.86460
0.99054	88153.86702	2283.86460
0.98739	88033.88248	2282.86460
0.98425	87914.04357	2281.86460
0.98111	87794.34915	2280.86460
0.97798	87674.79812	2279.86460
0.97484	87555.38932	2278.86460
0.97171	87436.12165	2277.86460
0.96858	87316.99394	2276.86460
0.96545	87198.00507	2275.86460
0.96233	87079.15388	2274.86460
0.95921	86960.43922	2273.86460
0.95608	86841.85993	2272.86460
0.95297	86723.41486	2271.86460
0.94985	86605.10283	2270.86460
0.94673	86486.92267	2269.86460
0.94362	86368.87321	2268.86460
0.94051	86250.95325	2267.86460
0.93740	86133.16160	2266.86460
0.93429	86015.49708	2265.86460
0.93119	85897.95847	2264.86460
0.92808	85780.54457	2263.86460
0.92498	85663.25416	2262.86460
0.92188	85546.08602	2261.86460
0.91878	85429.03891	2260.86460
0.91568	85312.11161	2259.86460
0.91258	85195.30285	2258.86460
0.90948	85078.61139	2257.86460
0.90639	84962.03598	2256.86460
0.90329	84845.57533	2255.86460
0.90020	84729.22817	2254.86460
0.89711	84612.99321	2253.86460
0.89402	84496.86916	2252.86460
0.89093	84380.85472	2251.86460
0.88784	84264.94856	2250.86460
0.88475	84149.14936	2249.86460
0.88166	84033.45579	2248.86460
0.87858	83917.86650	2247.86460
0.87549	83802.38014	2246.86460
0.87241	83686.99534	2245.86460
0.86932	83571.71071	2244.86460
0.86623	83456.52489	2243.86460
0.86315	83341.43645	2242.86460
0.86007	83226.44399	2241.86460
0.85698	83111.54607	2240.86460
0.85390	82996.74127	2239.86460
0.85081	82882.02813	2238.86460
0.84773	82767.40517	2237.86460
0.84465	82652.87093	2236.86460
0.84156	82538.42390	2235.86460
0.83848	82424.06258	2234.86460
0.83539	82309.78544	2233.86460
0.83231	82195.59093	2232.86460
0.82922	82081.47751	2231.86460
0.82614	81967.44359	2230.86460
0.82305	81853.48759	2229.86460
0.81996	81739.60789	2228.86460
0.81688	81625.80288	2227.86460
0.81379	81512.07090	2226.86460
0.81070	81398.41029	2225.86460
0.80761	81284.81936	2224.86460
0.80452	81171.29642	2223.86460
0.80142	81057.83973	2222.86460
0.79833	80944.44754	2221.86460
0.79523	80831.11810	2220.86460
0.79214	80717.84959	2219.86460
0.78904	80604.64022	2218.86460
0.78594	80491.48814	2217.86460
0.78283	80378.39149	2216.86460
0.77973	80265.34837	2215.86460
0.77663	80152.35687	2214.86460
0.77352	80039.41505	2213.86460
0.77041	79926.52094	2212.86460
0.76730	79813.67252	2211.86460
0.76418	79700.86779	2210.86460
0.76106	79588.10467	2209.86460
0.75795	79475.38107	2208.86460
0.75482	79362.69487	2207.86460
0.75170	79250.04392	2206.86460
0.74857	79137.42602	2205.86460
0.74544	79024.83894	2204.86460
0.74231	78912.28042	2203.86460
0.73917	78799.74816	2202.86460
0.73603	78687.23982	2201.86460
0.73289	78574.75302	2200.86460
0.72974	78462.28533	2199.86460
0.72659	78349.83430	2198.86460
0.72343	78237.39741	2197.86460
0.72028	78124.97211	2196.86460
0.71711	78012.55580	2195.86460
0.71394	77900.14583	2194.86460
0.71077	77787.73949	2193.86460
0.70760	77675.33405	2192.86460
0.70442	77562.92669	2191.86460
0.70123	77450.51455	2190.86460
0.69804	77338.09472	2189.86460
0.69484	77225.66421	2188.86460
0.69164	77113.22000	2187.86460
0.68844	77000.75897	2186.86460
0.68522	76888.27797	2185.86460
0.68201	76775.77375	2184.86460
0.67878	76663.24302	2183.86460
0.67555	76550.68239	2182.86460
0.67231	76438.08841	2181.86460
0.66907	76325.45756	2180.86460
0.66582	76212.78621	2179.86460
0.66256	76100.07068	2178.86460
0.65930	75987.30719	2177.86460
0.65603	75874.49185	2176.86460
0.65275	75761.62070	2175.86460
0.64946	75648.68968	2174.86460
0.64617	75535.69463	2173.86460
0.64286	75422.63127	2172.86460
0.63955	75309.49523	2171.86460
0.63623	75196.28201	2170.86460
0.63290	75082.98700	2169.86460
0.62956	74969.60548	2168.86460
0.62621	74856.13259	2167.86460
0.62285	74742.56332	2166.86460
0.61949	74628.89256	2165.86460
0.61611	74515.11502	2164.86460
0.61272	74401.22529	2163.86460
0.60932	74287.21777	2162.86460
0.60591	74173.08674	2161.86460
0.60248	74058.82627	2160.86460
0.59905	73944.43028	2159.86460
0.59560	73829.89248	2158.86460
0.59214	73715.20640	2157.86460
0.58867	73600.36538	2156.86460
0.58518	73485.36252	2155.86460
0.58168	73370.19072	2154.86460
0.57817	73254.84263	2153.86460
0.57464	73139.31068	2152.86460
0.57109	73023.58702	2151.86460
0.56753	72907.66354	2150.86460
0.56396	72791.53186	2149.86460
0.56037	72675.18329	2148.86460
0.55676	72558.60885	2147.86460
0.55313	72441.79921	2146.86460
0.54949	72324.74472	2145.86460
0.54583	72207.43535	2144.86460
0.54215	72089.86070	2143.86460
0.53845	71972.00996	2142.86460
0.53472	71853.87192	2141.86460
0.53098	71735.43491	2140.86460
0.52722	71616.68678	2139.86460
0.52343	71497.61489	2138.86460
0.51962	71378.20609	2137.86460
0.51579	71258.44663	2136.86460
0.51194	71138.32222	2135.86460
0.50805	71017.81791	2134.86460
0.50415	70896.91809	2133.86460
0.50021	70775.60645	2132.86460
0.49625	70653.86591	2131.86460
0.49226	70531.67862	2130.86460
0.48823	70409.02584	2129.86460
0.48418	70285.88794	2128.86460
0.48011	70162.54449	2127.86460
0.47599	70038.37453	2126.86460
0.47184	69913.65148	2125.86460
0.46765	69788.35108	2124.86460
0.46342	69662.44778	2123.86460
0.45916	69535.91464	2122.86460
0.45485	69408.72324	2121.86460
0.45050	69280.84355	2120.86460
0.44611	69152.24378	2119.86460
0.44168	69022.89029	2118.86460
0.43719	68892.74740	2117.86460
0.43266	68761.77723	2116.86460
0.42808	68629.93952	2115.86460
0.42344	68497.19137	2114.86460
0.41874	68363.48709	2113.86460
0.41399	68228.77785	2112.86460
0.40917	68093.01147	2111.86460
0.40429	67956.13201	2110.86460
0.39934	67818.07947	2109.86460
0.39432	67678.78932	2108.86460
0.38923	67538.19206	2107.86460
0.38405	67396.21270	2106.86460
0.37880	67252.77008	2105.86460
0.37345	67107.77628	2104.86460
0.36801	66961.13571	2103.86460
0.36247	66812.74430	2102.86460
0.35682	66662.48835	2101.86460
0.35107	66510.24338	2100.86460
0.34519	66355.87263	2099.86460
0.33919	66199.22545	2098.86460
0.33304	66040.13528	2097.86460
0.32676	65878.41738	2096.86460
0.32031	65713.86605	2095.86460
0.31370	65546.25131	2094.86460
0.30690	65375.31504	2093.86460
0.29990	65200.76614	2092.86460
0.29269	65022.27482	2091.86460
0.28523	64839.46550	2090.86460
0.27752	64651.90826	2089.86460
0.26952	64459.10811	2088.86460
0.26120	64260.49194	2087.86460
0.25253	64055.39215	2086.86460
0.24347	63843.02660	2085.86460
0.23395	63622.47390	2084.86460
0.22394	63392.64375	2083.86460
0.21335	63152.24279	2082.86460
0.20210	62899.73895	2081.86460
0.19010	62633.33388	2080.86460
0.17723	62350.96757	2079.86460
0.16338	62050.41332	2078.86460
0.14844	61729.59079	2077.86460
0.13232	61387.34773	2076.86460
0.11511	61025.08178	2075.86460
0.09715	60649.34545	2074.86460
0.07918	60274.21174	2073.86460
0.06228	59919.97916	2072.86460
0.04750	59606.11757	2071.86460
0.03541	59343.30883	2070.86460
0.02603	59131.53559	2069.86460
0.01900	58963.88273	2068.86460
0.01383	58831.18604	2067.86460
0.01007	58724.84200	2066.86460
0.00734	58637.84167	2065.86460
