Mole fraction of liquid	Heat per mole [J]	Temperature [K]
1.00000	86578.94813	2257.49458
0.99998	86574.36371	2257.39896
0.99725	86466.76570	2256.39896
0.99452	86359.30562	2255.39896
0.99179	86251.98269	2254.39896
0.98907	86144.79614	2253.39896
0.98635	86037.74517	2252.39896
0.98363	85930.82900	2251.39896
0.98091	85824.04683	2250.39896
0.97819	85717.39790	2249.39896
0.97548	85610.88139	2248.39896
0.97277	85504.49653	2247.39896
0.97006	85398.24252	2246.39896
0.96736	85292.11856	2245.39896
0.96466	85186.12386	2244.39896
0.96196	85080.25763	2243.39896
0.95926	84974.51905	2242.39896
0.95656	84868.90735	2241.39896
0.95387	84763.42170	2240.39896
0.95118	84658.06131	2239.39896
0.94849	84552.82537	2238.39896
0.94580	84447.71307	2237.39896
0.94311	84342.72361	2236.39896
0.94043	84237.85616	2235.39896
0.93775	84133.10992	2234.39896
0.93507	84028.48406	2233.39896
0.93239	83923.97777	2232.39896
0.92972	83819.59023	2231.39896
0.92705	83715.32060	2230.39896
0.92437	83611.16806	2229.39896
0.92170	83507.13179	2228.39896
0.91904	83403.21094	2227.39896
0.91637	83299.40467	2226.39896
0.91371	83195.71216	2225.39896
0.91104	83092.13255	2224.39896
0.90838	82988.66500	2223.39896
0.90572	82885.30865	2222.39896
0.90306	82782.06266	2221.39896
0.90041	82678.92617	2220.39896
0.89775	82575.89831	2219.39896
0.89510	82472.97822	2218.39896
0.89244	82370.16503	2217.39896
0.88979	82267.45786	2216.39896
0.88714	82164.85584	2215.39896
0.88449	82062.35809	2214.39896
0.88184	81959.96371	2213.39896
0.87920	81857.67181	2212.39896
0.87655	81755.48151	2211.39896
0.87391	81653.39189	2210.39896
0.87126	81551.40205	2209.39896
0.86862	81449.51107	2208.39896
0.86598	81347.71804	2207.39896
0.86334	81246.02204	2206.39896
0.86070	81144.42213	2205.39896
0.85806	81042.91738	2204.39896
0.85542	80941.50685	2203.39896
0.85278	80840.18959	2202.39896
0.85014	80738.96465	2201.39896
0.84750	80637.83106	2200.39896
0.84487	80536.78786	2199.39896
0.84223	80435.83407	2198.39896
0.83960	80334.96870	2197.39896
0.83696	80234.19078	2196.39896
0.83433	80133.49930	2195.39896
0.83169	80032.89326	2194.39896
0.82906	79932.37165	2193.39896
0.82642	79831.93343	2192.39896
0.82379	79731.57759	2191.39896
0.82115	79631.30308	2190.39896
0.81852	79531.10886	2189.39896
0.81588	79430.99387	2188.39896
0.81325	79330.95704	2187.39896
0.81061	79230.99730	2186.39896
0.80798	79131.11356	2185.39896
0.80534	79031.30472	2184.39896
0.80271	78931.56967	2183.39896
0.80007	78831.90730	2182.39896
0.79743	78732.31648	2181.39896
0.79480	78632.79607	2180.39896
0.79216	78533.34491	2179.39896
0.78952	78433.96184	2178.39896
0.78688	78334.64569	2177.39896
0.78424	78235.39525	2176.39896
0.78160	78136.20933	2175.39896
0.77896	78037.08672	2174.39896
0.77631	77938.02617	2173.39896
0.77367	77839.02645	2172.39896
0.77102	77740.08630	2171.39896
0.76838	77641.20444	2170.39896
0.76573	77542.37958	2169.39896
0.76308	77443.61041	2168.39896
0.76043	77344.89561	2167.39896
0.75777	77246.23384	2166.39896
0.75512	77147.62374	2165.39896
0.75246	77049.06394	2164.39896
0.74981	76950.55305	2163.39896
0.74715	76852.08965	2162.39896
0.74449	76753.67231	2161.39896
0.74182	76655.29957	2160.39896
0.73916	76556.96997	2159.39896
0.73649	76458.68201	2158.39896
0.73382	76360.43418	2157.39896
0.73115	76262.22493	2156.39896
0.72847	76164.05270	2155.39896
0.72579	76065.91592	2154.39896
0.72311	75967.81296	2153.39896
0.72043	75869.74220	2152.39896
0.71775	75771.70197	2151.39896
0.71506	75673.69059	2150.39896
0.71237	75575.70633	2149.39896
0.70967	75477.74746	2148.39896
0.70697	75379.81220	2147.39896
0.70427	75281.89874	2146.39896
0.70157	75184.00526	2145.39896
0.69886	75086.12987	2144.39896
0.69615	74988.27069	2143.39896
0.69343	74890.42578	2142.39896
0.69071	74792.59316	2141.39896
0.68799	74694.77082	2140.39896
0.68526	74596.95673	2139.39896
0.68253	74499.14880	2138.39896
0.67979	74401.34491	2137.39896
0.67705	74303.54288	2136.39896
0.67430	74205.74052	2135.39896
0.67155	74107.93556	2134.39896
0.66879	74010.12570	2133.39896
0.66603	73912.30861	2132.39896
0.66327	73814.48189	2131.39896
0.66049	73716.64309	2130.39896
0.65772	73618.78971	2129.39896
0.65493	73520.91920	2128.39896
0.65215	73423.13634	2127.39896
0.64936	73325.22382	2126.39896
0.64655	73227.28585	2125.39896
0.64375	73129.31953	2124.39896
0.64093	73031.32191	2123.39896
0.63811	72933.28993	2122.39896
0.63528	72835.22051	2121.39896
0.63245	72737.11047	2120.39896
0.62961	72638.95655	2119.39896
0.62676	72540.75541	2118.39896
0.62390	72442.50364	2117.39896
0.62104	72344.19775	2116.39896
0.61816	72245.83413	2115.39896
0.61528	72147.40911	2114.39896
0.61239	72048.91891	2113.39896
0.60949	71950.35965	2112.39896
0.60658	71851.72735	2111.39896
0.60367	71753.01791	2110.39896
0.60074	71654.22715	2109.39896
0.59780	71555.35073	2108.39896
0.59485	71456.38422	2107.39896
0.59190	71357.32305	2106.39896
0.58893	71258.16251	2105.39896
0.58595	71158.89778	2104.39896
0.58296	71059.52387	2103.39896
0.57996	70960.03565	2102.39896
0.57694	70860.42782	2101.39896
0.57392	70760.69494	2100.39896
0.57088	70660.83139	2099.39896
0.56783	70560.83135	2098.39896
0.56477	70460.68884	2097.39896
0.56169	70360.39767	2096.39896
0.55860	70259.95145	2095.39896
0.55549	70159.34357	2094.39896
0.55237	70058.56720	2093.39896
0.54923	69957.61526	2092.39896
0.54608	69856.48044	2091.39896
0.54291	69755.15516	2090.39896
0.53972	69653.63155	2089.39896
0.53652	69551.90149	2088.39896
0.53330	69449.95651	2087.39896
0.53006	69347.78784	2086.39896
0.52681	69245.38639	2085.39896
0.52353	69142.74269	2084.39896
0.52023	69039.84691	2083.39896
0.51692	68936.68880	2082.39896
0.51358	68833.25772	2081.39896
0.51022	68729.54258	2080.39896
0.50684	68625.53180	2079.39896
0.50343	68521.21332	2078.39896
0.50000	68416.57455	2077.39896
0.49655	68311.60235	2076.39896
0.49307	68206.28297	2075.39896
0.48956	68100.60203	2074.39896
0.48602	67994.54448	2073.39896
0.48246	67888.09457	2072.39896
0.47887	67781.23575	2071.39896
0.47524	67673.95069	2070.39896
0.47159	67566.22116	2069.39896
0.46790	67458.02801	2068.39896
0.46418	67349.35109	2067.39896
0.46042	67240.16917	2066.39896
0.45663	67130.45988	2065.39896
0.45279	67020.19960	2064.39896
0.44892	66909.36338	2063.39896
0.44501	66797.92483	2062.39896
0.44105	66685.85599	2061.39896
0.43705	66573.12726	2060.39896
0.43300	66459.70718	2059.39896
0.42890	66345.56232	2058.39896
0.42475	66230.65711	2057.39896
0.42055	66114.95364	2056.39896
0.41629	65998.41145	2055.39896
0.41198	65880.98729	2054.39896
0.40760	65762.63482	2053.39896
0.40316	65643.30440	2052.39896
0.39865	65522.94267	2051.39896
0.39407	65401.49219	2050.39896
0.38942	65278.89104	2049.39896
0.38468	65155.07231	2048.39896
0.37986	65029.96355	2047.39896
0.37496	64903.48616	2046.39896
0.36996	64775.55461	2045.39896
0.36486	64646.07568	2044.39896
0.35966	64514.94745	2043.39896
0.35434	64382.05819	2042.39896
0.34891	64247.28511	2041.39896
0.34335	64110.49277	2040.39896
0.33765	63971.53142	2039.39896
0.33180	63830.23478	2038.39896
0.32580	63686.41769	2037.39896
0.31962	63539.87310	2036.39896
0.31326	63390.36860	2035.39896
0.30670	63237.64221	2034.39896
0.29992	63081.39731	2033.39896
0.29290	62921.29655	2032.39896
0.28562	62756.95442	2031.39896
0.27805	62587.92825	2030.39896
0.27015	62413.70731	2029.39896
0.26190	62233.69964	2028.39896
0.25325	62047.21630	2027.39896
0.24416	61853.45297	2026.39896
0.23455	61651.46948	2025.39896
0.22438	61440.16903	2024.39896
0.21356	61218.28216	2023.39896
0.20200	60984.36679	2022.39896
0.18960	60736.84899	2021.39896
0.17628	60474.15346	2020.39896
0.16194	60195.01361	2019.39896
0.14657	59899.09719	2018.39896
0.13025	59588.06705	2017.39896
0.11330	59266.93867	2016.39896
0.09624	58944.93384	2015.39896
0.07984	58634.46883	2014.39896
0.06484	58347.85230	2013.39896
0.05175	58093.58618	2012.39896
0.04077	57874.77387	2011.39896
0.03183	57690.00976	2010.39896
0.02469	57535.31194	2009.39896
0.01907	57405.80241	2008.39896
0.01468	57296.71962	2007.39896
0.01127	57203.87599	2006.39896
0.00864	57123.78631	2005.39896
