Mole fraction of liquid	Heat per mole [J]	Temperature [K]
1.00000	96844.21835	2450.59309
0.99998	96839.76579	2450.49747
0.99722	96718.58267	2449.49747
0.99447	96597.62753	2448.49747
0.99172	96476.89939	2447.49747
0.98897	96356.39726	2446.49747
0.98624	96236.12015	2445.49747
0.98350	96116.06707	2444.49747
0.98078	95996.23705	2443.49747
0.97805	95876.62911	2442.49747
0.97534	95757.24227	2441.49747
0.97263	95638.07557	2440.49747
0.96992	95519.12804	2439.49747
0.96722	95400.39871	2438.49747
0.96453	95281.88662	2437.49747
0.96184	95163.59082	2436.49747
0.95916	95045.51036	2435.49747
0.95648	94927.64427	2434.49747
0.95381	94809.99162	2433.49747
0.95114	94692.55147	2432.49747
0.94848	94575.32286	2431.49747
0.94582	94458.30487	2430.49747
0.94317	94341.49655	2429.49747
0.94053	94224.89698	2428.49747
0.93788	94108.50522	2427.49747
0.93525	93992.32035	2426.49747
0.93262	93876.34145	2425.49747
0.92999	93760.56760	2424.49747
0.92737	93644.99788	2423.49747
0.92476	93529.63137	2422.49747
0.92215	93414.46717	2421.49747
0.91954	93299.50436	2420.49747
0.91694	93184.74204	2419.49747
0.91435	93070.17931	2418.49747
0.91176	92955.81526	2417.49747
0.90917	92841.64899	2416.49747
0.90659	92727.67962	2415.49747
0.90401	92613.90625	2414.49747
0.90144	92500.32798	2413.49747
0.89888	92386.94394	2412.49747
0.89631	92273.75323	2411.49747
0.89376	92160.75497	2410.49747
0.89120	92047.94828	2409.49747
0.88866	91935.33229	2408.49747
0.88611	91822.90612	2407.49747
0.88358	91710.66889	2406.49747
0.88104	91598.61974	2405.49747
0.87851	91486.75779	2404.49747
0.87599	91375.08219	2403.49747
0.87347	91263.59206	2402.49747
0.87095	91152.28654	2401.49747
0.86844	91041.16477	2400.49747
0.86594	90930.22591	2399.49747
0.86343	90819.46908	2398.49747
0.86093	90708.89344	2397.49747
0.85844	90598.49813	2396.49747
0.85595	90488.28231	2395.49747
0.85347	90378.24513	2394.49747
0.85099	90268.38573	2393.49747
0.84851	90158.70329	2392.49747
0.84604	90049.19695	2391.49747
0.84357	89939.86588	2390.49747
0.84111	89830.70924	2389.49747
0.83865	89721.72619	2388.49747
0.83619	89612.91589	2387.49747
0.83374	89504.27751	2386.49747
0.83129	89395.81023	2385.49747
0.82885	89287.51320	2384.49747
0.82641	89179.38561	2383.49747
0.82397	89071.42662	2382.49747
0.82154	88963.63541	2381.49747
0.81911	88856.01116	2380.49747
0.81669	88748.55303	2379.49747
0.81427	88641.26022	2378.49747
0.81186	88534.13190	2377.49747
0.80944	88427.16725	2376.49747
0.80704	88320.36545	2375.49747
0.80463	88213.72569	2374.49747
0.80223	88107.24716	2373.49747
0.79983	88000.92903	2372.49747
0.79744	87894.77050	2371.49747
0.79505	87788.77075	2370.49747
0.79266	87682.92898	2369.49747
0.79028	87577.24437	2368.49747
0.78790	87471.71611	2367.49747
0.78553	87366.34340	2366.49747
0.78315	87261.12542	2365.49747
0.78079	87156.06138	2364.49747
0.77842	87051.15047	2363.49747
0.77606	86946.39187	2362.49747
0.77370	86841.78479	2361.49747
0.77135	86737.32842	2360.49747
0.76900	86633.02197	2359.49747
0.76665	86528.86462	2358.49747
0.76430	86424.85557	2357.49747
0.76196	86320.99403	2356.49747
0.75962	86217.27918	2355.49747
0.75729	86113.71024	2354.49747
0.75496	86010.28639	2353.49747
0.75263	85907.00685	2352.49747
0.75030	85803.87080	2351.49747
0.74798	85700.87744	2350.49747
0.74566	85598.02599	2349.49747
0.74335	85495.31563	2348.49747
0.74103	85392.74556	2347.49747
0.73872	85290.31499	2346.49747
0.73642	85188.02311	2345.49747
0.73411	85085.86913	2344.49747
0.73181	84983.85224	2343.49747
0.72951	84881.97164	2342.49747
0.72722	84780.22653	2341.49747
0.72492	84678.61610	2340.49747
0.72263	84577.13956	2339.49747
0.72035	84475.79609	2338.49747
0.71806	84374.58491	2337.49747
0.71578	84273.50519	2336.49747
0.71350	84172.55614	2335.49747
0.71122	84071.73694	2334.49747
0.70895	83971.04680	2333.49747
0.70668	83870.48490	2332.49747
0.70441	83770.05043	2331.49747
0.70214	83669.74259	2330.49747
0.69988	83569.56055	2329.49747
0.69762	83469.50351	2328.49747
0.69536	83369.57066	2327.49747
0.69310	83269.76117	2326.49747
0.69085	83170.07424	2325.49747
0.68860	83070.50903	2324.49747
0.68635	82971.06474	2323.49747
0.68410	82871.74053	2322.49747
0.68186	82772.53559	2321.49747
0.67961	82673.44909	2320.49747
0.67737	82574.48019	2319.49747
0.67513	82475.62808	2318.49747
0.67290	82376.89191	2317.49747
0.67066	82278.27086	2316.49747
0.66843	82179.76408	2315.49747
0.66620	82081.37074	2314.49747
0.66397	81983.09000	2313.49747
0.66175	81884.92100	2312.49747
0.65952	81786.86291	2311.49747
0.65730	81688.91487	2310.49747
0.65508	81591.07602	2309.49747
0.65286	81493.34552	2308.49747
0.65065	81395.72251	2307.49747
0.64843	81298.20611	2306.49747
0.64622	81200.79546	2305.49747
0.64401	81103.48970	2304.49747
0.64180	81006.28795	2303.49747
0.63959	80909.18934	2302.49747
0.63738	80812.19297	2301.49747
0.63518	80715.29797	2300.49747
0.63297	80618.50344	2299.49747
0.63077	80521.80850	2298.49747
0.62857	80425.21224	2297.49747
0.62637	80328.71377	2296.49747
0.62417	80232.31217	2295.49747
0.62197	80136.00652	2294.49747
0.61978	80039.79593	2293.49747
0.61758	79943.67945	2292.49747
0.61539	79847.65616	2291.49747
0.61320	79751.72513	2290.49747
0.61101	79655.88543	2289.49747
0.60882	79560.13609	2288.49747
0.60663	79464.47618	2287.49747
0.60444	79368.90473	2286.49747
0.60225	79273.42078	2285.49747
0.60007	79178.02336	2284.49747
0.59788	79082.71149	2283.49747
0.59570	78987.48419	2282.49747
0.59351	78892.34047	2281.49747
0.59133	78797.27932	2280.49747
0.58915	78702.29974	2279.49747
0.58697	78607.40072	2278.49747
0.58479	78512.58123	2277.49747
0.58261	78417.84024	2276.49747
0.58043	78323.17671	2275.49747
0.57825	78228.58959	2274.49747
0.57607	78134.07783	2273.49747
0.57389	78039.64035	2272.49747
0.57171	77945.27609	2271.49747
0.56953	77850.98395	2270.49747
0.56736	77756.76284	2269.49747
0.56518	77662.61165	2268.49747
0.56300	77568.52926	2267.49747
0.56082	77474.51454	2266.49747
0.55865	77380.56636	2265.49747
0.55647	77286.68356	2264.49747
0.55429	77192.86497	2263.49747
0.55211	77099.10943	2262.49747
0.54993	77005.41573	2261.49747
0.54776	76911.78268	2260.49747
0.54558	76818.20906	2259.49747
0.54340	76724.69365	2258.49747
0.54122	76631.23518	2257.49747
0.53904	76537.83242	2256.49747
0.53686	76444.48408	2255.49747
0.53468	76351.18886	2254.49747
0.53250	76257.94548	2253.49747
0.53032	76164.75260	2252.49747
0.52813	76071.60887	2251.49747
0.52595	75978.51296	2250.49747
0.52376	75885.46347	2249.49747
0.52158	75792.45902	2248.49747
0.51939	75699.49819	2247.49747
0.51720	75606.57954	2246.49747
0.51501	75513.70163	2245.49747
0.51282	75420.86298	2244.49747
0.51063	75328.06209	2243.49747
0.50844	75235.29744	2242.49747
0.50624	75142.56749	2241.49747
0.50405	75049.87068	2240.49747
0.50185	74957.20541	2239.49747
0.49965	74864.57007	2238.49747
0.49745	74771.96301	2237.49747
0.49524	74679.38258	2236.49747
0.49304	74586.82707	2235.49747
0.49083	74494.29476	2234.49747
0.48862	74401.78389	2233.49747
0.48641	74309.29268	2232.49747
0.48420	74216.81932	2231.49747
0.48198	74124.36194	2230.49747
0.47976	74031.91868	2229.49747
0.47754	73939.48762	2228.49747
0.47532	73847.06679	2227.49747
0.47309	73754.65422	2226.49747
0.47086	73662.24787	2225.49747
0.46863	73569.84568	2224.49747
0.46639	73477.44553	2223.49747
0.46415	73385.04528	2222.49747
0.46191	73292.64273	2221.49747
0.45966	73200.23565	2220.49747
0.45741	73107.82174	2219.49747
0.45516	73015.39866	2218.49747
0.45290	72922.96404	2217.49747
0.45064	72830.51543	2216.49747
0.44838	72738.05035	2215.49747
0.44611	72645.56624	2214.49747
0.44384	72553.06050	2213.49747
0.44156	72460.53046	2212.49747
0.43928	72367.97339	2211.49747
0.43699	72275.38650	2210.49747
0.43470	72182.76693	2209.49747
0.43240	72090.11175	2208.49747
0.43010	71997.41795	2207.49747
0.42779	71904.68245	2206.49747
0.42548	71811.90211	2205.49747
0.42316	71719.07367	2204.49747
0.42084	71626.19382	2203.49747
0.41851	71533.25915	2202.49747
0.41617	71440.26615	2201.49747
0.41383	71347.21121	2200.49747
0.41148	71254.09066	2199.49747
0.40913	71160.90067	2198.49747
0.40677	71067.63735	2197.49747
0.40440	70974.29666	2196.49747
0.40202	70880.87447	2195.49747
0.39964	70787.36651	2194.49747
0.39724	70693.76839	2193.49747
0.39484	70600.07558	2192.49747
0.39244	70506.28341	2191.49747
0.39002	70412.38708	2190.49747
0.38760	70318.38161	2189.49747
0.38516	70224.26187	2188.49747
0.38272	70130.02257	2187.49747
0.38026	70035.65824	2186.49747
0.37780	69941.16321	2185.49747
0.37533	69846.53164	2184.49747
0.37285	69751.75746	2183.49747
0.37035	69656.83440	2182.49747
0.36785	69561.75597	2181.49747
0.36533	69466.51543	2180.49747
0.36280	69371.10580	2179.49747
0.36026	69275.51984	2178.49747
0.35771	69179.75001	2177.49747
0.35514	69083.78850	2176.49747
0.35256	68987.62719	2175.49747
0.34997	68891.25763	2174.49747
0.34737	68794.67101	2173.49747
0.34474	68697.85818	2172.49747
0.34211	68600.80958	2171.49747
0.33945	68503.51527	2170.49747
0.33679	68405.96485	2169.49747
0.33410	68308.14746	2168.49747
0.33140	68210.05176	2167.49747
0.32868	68111.66588	2166.49747
0.32594	68012.97740	2165.49747
0.32318	67913.97329	2164.49747
0.32040	67814.63992	2163.49747
0.31760	67714.96294	2162.49747
0.31478	67614.92731	2161.49747
0.31194	67514.51721	2160.49747
0.30907	67413.71596	2159.49747
0.30618	67312.50603	2158.49747
0.30327	67210.86888	2157.49747
0.30033	67108.78498	2156.49747
0.29736	67006.23364	2155.49747
0.29437	66903.19301	2154.49747
0.29134	66799.63990	2153.49747
0.28829	66695.54971	2152.49747
0.28520	66590.89631	2151.49747
0.28208	66485.65190	2150.49747
0.27893	66379.78685	2149.49747
0.27574	66273.26954	2148.49747
0.27251	66166.06618	2147.49747
0.26924	66058.14057	2146.49747
0.26593	65949.45392	2145.49747
0.26257	65839.96451	2144.49747
0.25917	65729.62743	2143.49747
0.25573	65618.39424	2142.49747
0.25223	65506.21253	2141.49747
0.24867	65393.02553	2140.49747
0.24506	65278.77155	2139.49747
0.24139	65163.38338	2138.49747
0.23765	65046.78762	2137.49747
0.23385	64928.90385	2136.49747
0.22997	64809.64368	2135.49747
0.22602	64688.90967	2134.49747
0.22198	64566.59394	2133.49747
0.21785	64442.57667	2132.49747
0.21363	64316.72416	2131.49747
0.20930	64188.88657	2130.49747
0.20487	64058.89514	2129.49747
0.20031	63926.55878	2128.49747
0.19564	63792.12863	2127.49747
0.19081	63654.42373	2126.49747
0.18581	63513.61131	2125.49747
0.18064	63369.35600	2124.49747
0.17528	63221.26438	2123.49747
0.16970	63068.87035	2122.49747
0.16387	62911.61579	2121.49747
0.15776	62748.82420	2120.49747
0.15132	62579.66429	2119.49747
0.14452	62403.09851	2118.49747
0.13728	62217.80871	2117.49747
0.12951	62022.08622	2116.49747
0.12111	61813.66547	2115.49747
0.11191	61589.46770	2114.49747
0.10171	61345.20656	2113.49747
0.09021	61074.81930	2112.49747
0.07698	60769.90687	2111.49747
0.06155	60420.74133	2110.49747
0.04384	60026.39522	2109.49747
0.02591	59628.33303	2108.49747
0.01236	59319.21952	2107.49747
0.00514	59137.86803	2106.49747
