Mole fraction of liquid	Heat per mole [J]	Temperature [K]
1.00000	1.02802E5	2570.83790
0.99999	1.02798E5	2570.74228
0.99735	1.02674E5	2569.74228
0.99473	1.02551E5	2568.74228
0.99211	1.02428E5	2567.74228
0.98950	1.02305E5	2566.74228
0.98690	1.02183E5	2565.74228
0.98431	1.02061E5	2564.74228
0.98172	1.01939E5	2563.74228
0.97913	1.01817E5	2562.74228
0.97656	1.01696E5	2561.74228
0.97399	1.01575E5	2560.74228
0.97143	1.01454E5	2559.74228
0.96888	1.01334E5	2558.74228
0.96633	1.01213E5	2557.74228
0.96379	1.01093E5	2556.74228
0.96125	1.00974E5	2555.74228
0.95872	1.00854E5	2554.74228
0.95620	1.00735E5	2553.74228
0.95369	1.00616E5	2552.74228
0.95118	1.00497E5	2551.74228
0.94868	1.00379E5	2550.74228
0.94618	1.00260E5	2549.74228
0.94370	1.00143E5	2548.74228
0.94121	1.00025E5	2547.74228
0.93874	99907.35383	2546.74228
0.93627	99790.14292	2545.74228
0.93381	99673.17973	2544.74228
0.93135	99556.46321	2543.74228
0.92890	99439.99230	2542.74228
0.92646	99323.76596	2541.74228
0.92402	99207.78316	2540.74228
0.92159	99092.04285	2539.74228
0.91916	98976.54401	2538.74228
0.91675	98861.28562	2537.74228
0.91433	98746.26664	2536.74228
0.91193	98631.48607	2535.74228
0.90953	98516.94290	2534.74228
0.90713	98402.63612	2533.74228
0.90475	98288.56472	2532.74228
0.90236	98174.72772	2531.74228
0.89999	98061.12411	2530.74228
0.89762	97947.75292	2529.74228
0.89525	97834.61315	2528.74228
0.89290	97721.70384	2527.74228
0.89054	97609.02400	2526.74228
0.88820	97496.57266	2525.74228
0.88586	97384.34887	2524.74228
0.88352	97272.35166	2523.74228
0.88119	97160.58007	2522.74228
0.87887	97049.03315	2521.74228
0.87655	96937.70996	2520.74228
0.87424	96826.60955	2519.74228
0.87194	96715.73098	2518.74228
0.86964	96605.07332	2517.74228
0.86734	96494.63564	2516.74228
0.86505	96384.41701	2515.74228
0.86277	96274.41651	2514.74228
0.86049	96164.63322	2513.74228
0.85822	96055.06623	2512.74228
0.85595	95945.71462	2511.74228
0.85369	95836.57750	2510.74228
0.85144	95727.65396	2509.74228
0.84919	95618.94310	2508.74228
0.84694	95510.44404	2507.74228
0.84470	95402.15587	2506.74228
0.84247	95294.07772	2505.74228
0.84024	95186.20870	2504.74228
0.83802	95078.54794	2503.74228
0.83580	94971.09456	2502.74228
0.83359	94863.84769	2501.74228
0.83138	94756.80647	2500.74228
0.82918	94649.97003	2499.74228
0.82698	94543.33751	2498.74228
0.82479	94436.90806	2497.74228
0.82261	94330.68084	2496.74228
0.82043	94224.65498	2495.74228
0.81825	94118.82966	2494.74228
0.81608	94013.20402	2493.74228
0.81391	93907.77723	2492.74228
0.81175	93802.54846	2491.74228
0.80960	93697.51687	2490.74228
0.80745	93592.68166	2489.74228
0.80530	93488.04198	2488.74228
0.80316	93383.59703	2487.74228
0.80103	93279.34598	2486.74228
0.79890	93175.28803	2485.74228
0.79677	93071.42237	2484.74228
0.79465	92967.74819	2483.74228
0.79253	92864.26469	2482.74228
0.79042	92760.97108	2481.74228
0.78832	92657.86655	2480.74228
0.78621	92554.95032	2479.74228
0.78412	92452.22161	2478.74228
0.78203	92349.67961	2477.74228
0.77994	92247.32357	2476.74228
0.77786	92145.15268	2475.74228
0.77578	92043.16619	2474.74228
0.77371	91941.36332	2473.74228
0.77164	91839.74329	2472.74228
0.76957	91738.30535	2471.74228
0.76751	91637.04874	2470.74228
0.76546	91535.97269	2469.74228
0.76341	91435.07644	2468.74228
0.76136	91334.35925	2467.74228
0.75932	91233.82036	2466.74228
0.75729	91133.45903	2465.74228
0.75526	91033.27452	2464.74228
0.75323	90933.26608	2463.74228
0.75121	90833.43297	2462.74228
0.74919	90733.77446	2461.74228
0.74717	90634.28982	2460.74228
0.74516	90534.97831	2459.74228
0.74316	90435.83922	2458.74228
0.74116	90336.87182	2457.74228
0.73916	90238.07539	2456.74228
0.73717	90139.44920	2455.74228
0.73518	90040.99255	2454.74228
0.73320	89942.70473	2453.74228
0.73122	89844.58501	2452.74228
0.72924	89746.63271	2451.74228
0.72727	89648.84710	2450.74228
0.72530	89551.22750	2449.74228
0.72334	89453.77320	2448.74228
0.72138	89356.48351	2447.74228
0.71943	89259.35773	2446.74228
0.71748	89162.39517	2445.74228
0.71553	89065.59515	2444.74228
0.71359	88968.95697	2443.74228
0.71165	88872.47996	2442.74228
0.70972	88776.16344	2441.74228
0.70779	88680.00672	2440.74228
0.70586	88584.00914	2439.74228
0.70394	88488.17001	2438.74228
0.70202	88392.48867	2437.74228
0.70010	88296.96445	2436.74228
0.69819	88201.59668	2435.74228
0.69629	88106.38471	2434.74228
0.69438	88011.32786	2433.74228
0.69249	87916.42549	2432.74228
0.69059	87821.67692	2431.74228
0.68870	87727.08152	2430.74228
0.68681	87632.63863	2429.74228
0.68493	87538.34760	2428.74228
0.68305	87444.20778	2427.74228
0.68117	87350.21852	2426.74228
0.67930	87256.37919	2425.74228
0.67743	87162.68914	2424.74228
0.67557	87069.14774	2423.74228
0.67371	86975.75435	2422.74228
0.67185	86882.50833	2421.74228
0.66999	86789.40905	2420.74228
0.66814	86696.45588	2419.74228
0.66630	86603.64820	2418.74228
0.66445	86510.98538	2417.74228
0.66261	86418.46679	2416.74228
0.66078	86326.09182	2415.74228
0.65894	86233.85983	2414.74228
0.65711	86141.77022	2413.74228
0.65529	86049.82237	2412.74228
0.65347	85958.01567	2411.74228
0.65165	85866.34950	2410.74228
0.64983	85774.82325	2409.74228
0.64802	85683.43631	2408.74228
0.64621	85592.18808	2407.74228
0.64441	85501.07796	2406.74228
0.64260	85410.10533	2405.74228
0.64080	85319.26960	2404.74228
0.63901	85228.57017	2403.74228
0.63722	85138.00644	2402.74228
0.63543	85047.57782	2401.74228
0.63364	84957.28370	2400.74228
0.63186	84867.12351	2399.74228
0.63008	84777.09664	2398.74228
0.62831	84687.20251	2397.74228
0.62653	84597.44053	2396.74228
0.62476	84507.81011	2395.74228
0.62300	84418.31067	2394.74228
0.62123	84328.94163	2393.74228
0.61947	84239.70240	2392.74228
0.61772	84150.59241	2391.74228
0.61596	84061.61107	2390.74228
0.61421	83972.75781	2389.74228
0.61246	83884.03206	2388.74228
0.61072	83795.43323	2387.74228
0.60898	83706.96076	2386.74228
0.60724	83618.61407	2385.74228
0.60550	83530.39260	2384.74228
0.60377	83442.29577	2383.74228
0.60204	83354.32301	2382.74228
0.60031	83266.47377	2381.74228
0.59858	83178.74748	2380.74228
0.59686	83091.14357	2379.74228
0.59514	83003.66147	2378.74228
0.59343	82916.30064	2377.74228
0.59172	82829.06050	2376.74228
0.59001	82741.94050	2375.74228
0.58830	82654.94008	2374.74228
0.58659	82568.05868	2373.74228
0.58489	82481.29575	2372.74228
0.58319	82394.65073	2371.74228
0.58149	82308.12307	2370.74228
0.57980	82221.71222	2369.74228
0.57811	82135.41762	2368.74228
0.57642	82049.23871	2367.74228
0.57473	81963.17496	2366.74228
0.57305	81877.22582	2365.74228
0.57137	81791.39072	2364.74228
0.56969	81705.66914	2363.74228
0.56802	81620.06051	2362.74228
0.56634	81534.56429	2361.74228
0.56467	81449.17994	2360.74228
0.56300	81363.90691	2359.74228
0.56134	81278.74466	2358.74228
0.55967	81193.69265	2357.74228
0.55801	81108.75033	2356.74228
0.55636	81023.91716	2355.74228
0.55470	80939.19260	2354.74228
0.55305	80854.57610	2353.74228
0.55139	80770.06713	2352.74228
0.54975	80685.66515	2351.74228
0.54810	80601.36961	2350.74228
0.54645	80517.17998	2349.74228
0.54481	80433.09572	2348.74228
0.54317	80349.11629	2347.74228
0.54154	80265.24116	2346.74228
0.53990	80181.46977	2345.74228
0.53827	80097.80160	2344.74228
0.53664	80014.23611	2343.74228
0.53501	79930.77276	2342.74228
0.53338	79847.41101	2341.74228
0.53176	79764.15034	2340.74228
0.53013	79680.99018	2339.74228
0.52851	79597.93003	2338.74228
0.52690	79514.96932	2337.74228
0.52528	79432.10754	2336.74228
0.52366	79349.34414	2335.74228
0.52205	79266.67858	2334.74228
0.52044	79184.11032	2333.74228
0.51883	79101.63884	2332.74228
0.51723	79019.26358	2331.74228
0.51562	78936.98402	2330.74228
0.51402	78854.79961	2329.74228
0.51242	78772.70982	2328.74228
0.51082	78690.71410	2327.74228
0.50923	78608.81192	2326.74228
0.50763	78527.00274	2325.74228
0.50604	78445.28601	2324.74228
0.50445	78363.66119	2323.74228
0.50286	78282.12775	2322.74228
0.50127	78200.68513	2321.74228
0.49968	78119.33280	2320.74228
0.49810	78038.07022	2319.74228
0.49652	77956.89682	2318.74228
0.49494	77875.81208	2317.74228
0.49336	77794.81545	2316.74228
0.49178	77713.90636	2315.74228
0.49020	77633.08429	2314.74228
0.48863	77552.34867	2313.74228
0.48705	77471.69896	2312.74228
0.48548	77391.13460	2311.74228
0.48391	77310.65505	2310.74228
0.48234	77230.25974	2309.74228
0.48078	77149.94811	2308.74228
0.47921	77069.71962	2307.74228
0.47765	76989.57370	2306.74228
0.47609	76909.50979	2305.74228
0.47452	76829.52734	2304.74228
0.47296	76749.62576	2303.74228
0.47140	76669.80451	2302.74228
0.46985	76590.06300	2301.74228
0.46829	76510.40068	2300.74228
0.46674	76430.81697	2299.74228
0.46518	76351.31129	2298.74228
0.46363	76271.88307	2297.74228
0.46208	76192.53174	2296.74228
0.46053	76113.25670	2295.74228
0.45898	76034.05739	2294.74228
0.45743	75954.93321	2293.74228
0.45589	75875.88358	2292.74228
0.45434	75796.90790	2291.74228
0.45280	75718.00559	2290.74228
0.45125	75639.17604	2289.74228
0.44971	75560.41866	2288.74228
0.44817	75481.73285	2287.74228
0.44663	75403.11800	2286.74228
0.44509	75324.57350	2285.74228
0.44355	75246.09875	2284.74228
0.44201	75167.69312	2283.74228
0.44047	75089.35601	2282.74228
0.43894	75011.08678	2281.74228
0.43740	74932.88482	2280.74228
0.43586	74854.74948	2279.74228
0.43433	74776.68015	2278.74228
0.43280	74698.67619	2277.74228
0.43126	74620.73694	2276.74228
0.42973	74542.86177	2275.74228
0.42820	74465.05003	2274.74228
0.42667	74387.30105	2273.74228
0.42514	74309.61419	2272.74228
0.42361	74231.98878	2271.74228
0.42208	74154.42414	2270.74228
0.42055	74076.91961	2269.74228
0.41902	73999.47450	2268.74228
0.41749	73922.08813	2267.74228
0.41596	73844.75981	2266.74228
0.41444	73767.48884	2265.74228
0.41291	73690.27452	2264.74228
0.41138	73613.11614	2263.74228
0.40985	73536.01298	2262.74228
0.40833	73458.96433	2261.74228
0.40680	73381.96946	2260.74228
0.40527	73305.02763	2259.74228
0.40375	73228.13809	2258.74228
0.40222	73151.30011	2257.74228
0.40070	73074.51293	2256.74228
0.39917	72997.77577	2255.74228
0.39764	72921.08788	2254.74228
0.39612	72844.44846	2253.74228
0.39459	72767.85673	2252.74228
0.39306	72691.31189	2251.74228
0.39154	72614.81314	2250.74228
0.39001	72538.35967	2249.74228
0.38848	72461.95064	2248.74228
0.38695	72385.58522	2247.74228
0.38543	72309.26258	2246.74228
0.38390	72232.98185	2245.74228
0.38237	72156.74217	2244.74228
0.38084	72080.54266	2243.74228
0.37931	72004.38245	2242.74228
0.37778	71928.26062	2241.74228
0.37625	71852.17628	2240.74228
0.37471	71776.12850	2239.74228
0.37318	71700.11633	2238.74228
0.37165	71624.13885	2237.74228
0.37011	71548.19508	2236.74228
0.36858	71472.28406	2235.74228
0.36704	71396.40478	2234.74228
0.36550	71320.55626	2233.74228
0.36397	71244.73747	2232.74228
0.36243	71168.94737	2231.74228
0.36089	71093.18493	2230.74228
0.35934	71017.44906	2229.74228
0.35780	70941.73870	2228.74228
0.35626	70866.05274	2227.74228
0.35471	70790.39005	2226.74228
0.35317	70714.74952	2225.74228
0.35162	70639.12997	2224.74228
0.35007	70563.53023	2223.74228
0.34852	70487.94911	2222.74228
0.34696	70412.38538	2221.74228
0.34541	70336.83782	2220.74228
0.34385	70261.30516	2219.74228
0.34229	70185.78611	2218.74228
0.34073	70110.27936	2217.74228
0.33917	70034.78359	2216.74228
0.33761	69959.29743	2215.74228
0.33604	69883.81949	2214.74228
0.33447	69808.34837	2213.74228
0.33290	69732.88263	2212.74228
0.33133	69657.42078	2211.74228
0.32975	69581.96134	2210.74228
0.32818	69506.50277	2209.74228
0.32659	69431.04350	2208.74228
0.32501	69355.58194	2207.74228
0.32343	69280.11646	2206.74228
0.32184	69204.64538	2205.74228
0.32025	69129.16700	2204.74228
0.31865	69053.67958	2203.74228
0.31705	68978.18133	2202.74228
0.31545	68902.67042	2201.74228
0.31385	68827.14499	2200.74228
0.31224	68751.60312	2199.74228
0.31063	68676.04285	2198.74228
0.30901	68600.46217	2197.74228
0.30740	68524.85902	2196.74228
0.30577	68449.23129	2195.74228
0.30415	68373.57682	2194.74228
0.30252	68297.89338	2193.74228
0.30088	68222.17869	2192.74228
0.29924	68146.43042	2191.74228
0.29760	68070.64616	2190.74228
0.29595	67994.82344	2189.74228
0.29430	67918.95972	2188.74228
0.29264	67843.05239	2187.74228
0.29098	67767.09876	2186.74228
0.28932	67691.09608	2185.74228
0.28764	67615.04150	2184.74228
0.28597	67538.93209	2183.74228
0.28428	67462.76484	2182.74228
0.28259	67386.53663	2181.74228
0.28090	67310.24426	2180.74228
0.27920	67233.88442	2179.74228
0.27749	67157.45370	2178.74228
0.27578	67080.94857	2177.74228
0.27406	67004.36540	2176.74228
0.27233	66927.70043	2175.74228
0.27060	66850.94977	2174.74228
0.26885	66774.10939	2173.74228
0.26711	66697.17514	2172.74228
0.26535	66620.14270	2171.74228
0.26359	66543.00762	2170.74228
0.26181	66465.76526	2169.74228
0.26003	66388.41082	2168.74228
0.25824	66310.93934	2167.74228
0.25644	66233.34564	2166.74228
0.25464	66155.62435	2165.74228
0.25282	66077.76989	2164.74228
0.25099	65999.77647	2163.74228
0.24916	65921.63803	2162.74228
0.24731	65843.34829	2161.74228
0.24545	65764.90070	2160.74228
0.24358	65686.28843	2159.74228
0.24170	65607.50434	2158.74228
0.23981	65528.54098	2157.74228
0.23790	65449.39059	2156.74228
0.23598	65370.04501	2155.74228
0.23405	65290.49575	2154.74228
0.23211	65210.73387	2153.74228
0.23015	65130.75003	2152.74228
0.22818	65050.53442	2151.74228
0.22619	64970.07674	2150.74228
0.22418	64889.36616	2149.74228
0.22216	64808.39128	2148.74228
0.22012	64727.14012	2147.74228
0.21807	64645.60003	2146.74228
0.21599	64563.75766	2145.74228
0.21390	64481.59891	2144.74228
0.21179	64399.10887	2143.74228
0.20966	64316.27174	2142.74228
0.20750	64233.07078	2141.74228
0.20532	64149.48822	2140.74228
0.20312	64065.50517	2139.74228
0.20090	63981.10150	2138.74228
0.19865	63896.25577	2137.74228
0.19637	63810.94510	2136.74228
0.19406	63725.14498	2135.74228
0.19173	63638.82920	2134.74228
0.18936	63551.96960	2133.74228
0.18696	63464.53592	2132.74228
0.18453	63376.49556	2131.74228
0.18206	63287.81333	2130.74228
0.17956	63198.45117	2129.74228
0.17701	63108.36780	2128.74228
0.17443	63017.75134	2127.74228
0.17180	62926.08551	2126.74228
0.16912	62833.54380	2125.74228
0.16639	62740.06742	2124.74228
0.16360	62645.59174	2123.74228
0.16076	62550.04551	2122.74228
0.15786	62453.34990	2121.74228
0.15489	62355.41731	2120.74228
0.15184	62256.15011	2119.74228
0.14873	62155.43887	2118.74228
0.14552	62053.16048	2117.74228
0.14223	61949.17564	2116.74228
0.13884	61843.32590	2115.74228
0.13535	61735.42992	2114.74228
0.13173	61625.27881	2113.74228
0.12798	61512.63019	2112.74228
0.12409	61397.20062	2111.74228
0.12004	61278.65580	2110.74228
0.11580	61156.59771	2109.74228
0.11136	61030.54761	2108.74228
0.10668	60899.92326	2107.74228
0.10173	60764.00809	2106.74228
0.09646	60621.90940	2105.74228
0.09081	60472.50172	2104.74228
0.08471	60314.35248	2103.74228
0.07807	60145.63283	2102.74228
0.07077	59964.04217	2101.74228
0.06267	59766.86409	2100.74228
0.05363	59551.55112	2099.74228
0.04365	59317.91304	2098.74228
0.03310	59073.44608	2097.74228
0.02303	58838.88327	2096.74228
0.01479	58640.66301	2095.74228
0.00900	58491.02369	2094.74228
