Mole fraction of liquid	Heat per mole [J]	Temperature [K]
1.00000	1.02671E5	2568.84843
0.99999	1.02666E5	2568.75280
0.99739	1.02544E5	2567.75280
0.99479	1.02422E5	2566.75280
0.99221	1.02300E5	2565.75280
0.98963	1.02179E5	2564.75280
0.98706	1.02058E5	2563.75280
0.98449	1.01937E5	2562.75280
0.98193	1.01816E5	2561.75280
0.97938	1.01696E5	2560.75280
0.97684	1.01576E5	2559.75280
0.97430	1.01456E5	2558.75280
0.97177	1.01336E5	2557.75280
0.96924	1.01217E5	2556.75280
0.96673	1.01098E5	2555.75280
0.96422	1.00979E5	2554.75280
0.96171	1.00861E5	2553.75280
0.95921	1.00742E5	2552.75280
0.95672	1.00624E5	2551.75280
0.95424	1.00507E5	2550.75280
0.95176	1.00389E5	2549.75280
0.94929	1.00272E5	2548.75280
0.94682	1.00155E5	2547.75280
0.94436	1.00038E5	2546.75280
0.94191	99921.34551	2545.75280
0.93946	99805.04349	2544.75280
0.93702	99688.98629	2543.75280
0.93459	99573.17286	2542.75280
0.93216	99457.60218	2541.75280
0.92974	99342.27321	2540.75280
0.92733	99227.18494	2539.75280
0.92492	99112.33635	2538.75280
0.92252	98997.72642	2537.75280
0.92012	98883.35415	2536.75280
0.91773	98769.21853	2535.75280
0.91535	98655.31857	2534.75280
0.91297	98541.65327	2533.75280
0.91060	98428.22164	2532.75280
0.90823	98315.02271	2531.75280
0.90587	98202.05548	2530.75280
0.90352	98089.31898	2529.75280
0.90117	97976.81225	2528.75280
0.89883	97864.53431	2527.75280
0.89650	97752.48421	2526.75280
0.89417	97640.66099	2525.75280
0.89184	97529.06369	2524.75280
0.88952	97417.69136	2523.75280
0.88721	97306.54307	2522.75280
0.88490	97195.61788	2521.75280
0.88260	97084.91484	2520.75280
0.88031	96974.43303	2519.75280
0.87802	96864.17151	2518.75280
0.87573	96754.12938	2517.75280
0.87346	96644.30570	2516.75280
0.87118	96534.69957	2515.75280
0.86892	96425.31008	2514.75280
0.86666	96316.13631	2513.75280
0.86440	96207.17737	2512.75280
0.86215	96098.43236	2511.75280
0.85990	95989.90039	2510.75280
0.85766	95881.58056	2509.75280
0.85543	95773.47200	2508.75280
0.85320	95665.57381	2507.75280
0.85098	95557.88513	2506.75280
0.84876	95450.40508	2505.75280
0.84655	95343.13279	2504.75280
0.84434	95236.06739	2503.75280
0.84214	95129.20802	2502.75280
0.83995	95022.55382	2501.75280
0.83775	94916.10395	2500.75280
0.83557	94809.85754	2499.75280
0.83339	94703.81376	2498.75280
0.83121	94597.97176	2497.75280
0.82904	94492.33069	2496.75280
0.82688	94386.88973	2495.75280
0.82472	94281.64805	2494.75280
0.82256	94176.60481	2493.75280
0.82041	94071.75918	2492.75280
0.81827	93967.11036	2491.75280
0.81613	93862.65752	2490.75280
0.81399	93758.39985	2489.75280
0.81187	93654.33653	2488.75280
0.80974	93550.46677	2487.75280
0.80762	93446.78975	2486.75280
0.80551	93343.30469	2485.75280
0.80340	93240.01077	2484.75280
0.80129	93136.90721	2483.75280
0.79919	93033.99322	2482.75280
0.79710	92931.26802	2481.75280
0.79501	92828.73081	2480.75280
0.79292	92726.38083	2479.75280
0.79084	92624.21729	2478.75280
0.78877	92522.23942	2477.75280
0.78669	92420.44646	2476.75280
0.78463	92318.83763	2475.75280
0.78257	92217.41217	2474.75280
0.78051	92116.16933	2473.75280
0.77846	92015.10834	2472.75280
0.77641	91914.22846	2471.75280
0.77437	91813.52893	2470.75280
0.77233	91713.00901	2469.75280
0.77029	91612.66794	2468.75280
0.76826	91512.50500	2467.75280
0.76624	91412.51943	2466.75280
0.76422	91312.71052	2465.75280
0.76220	91213.07752	2464.75280
0.76019	91113.61971	2463.75280
0.75819	91014.33635	2462.75280
0.75618	90915.22674	2461.75280
0.75418	90816.29014	2460.75280
0.75219	90717.52584	2459.75280
0.75020	90618.93312	2458.75280
0.74822	90520.51128	2457.75280
0.74624	90422.25961	2456.75280
0.74426	90324.17740	2455.75280
0.74229	90226.26394	2454.75280
0.74032	90128.51854	2453.75280
0.73836	90030.94050	2452.75280
0.73640	89933.52913	2451.75280
0.73444	89836.28372	2450.75280
0.73249	89739.20361	2449.75280
0.73055	89642.28809	2448.75280
0.72860	89545.53648	2447.75280
0.72667	89448.94811	2446.75280
0.72473	89352.52229	2445.75280
0.72280	89256.25835	2444.75280
0.72087	89160.15561	2443.75280
0.71895	89064.21341	2442.75280
0.71703	88968.43108	2441.75280
0.71512	88872.80795	2440.75280
0.71321	88777.34335	2439.75280
0.71131	88682.03663	2438.75280
0.70940	88586.88713	2437.75280
0.70751	88491.89420	2436.75280
0.70561	88397.05718	2435.75280
0.70372	88302.37541	2434.75280
0.70183	88207.84826	2433.75280
0.69995	88113.47507	2432.75280
0.69807	88019.25521	2431.75280
0.69620	87925.18802	2430.75280
0.69433	87831.27288	2429.75280
0.69246	87737.50914	2428.75280
0.69060	87643.89617	2427.75280
0.68874	87550.43334	2426.75280
0.68688	87457.12003	2425.75280
0.68503	87363.95559	2424.75280
0.68318	87270.93941	2423.75280
0.68134	87178.07086	2422.75280
0.67950	87085.34932	2421.75280
0.67766	86992.77418	2420.75280
0.67582	86900.34481	2419.75280
0.67399	86808.06061	2418.75280
0.67217	86715.92095	2417.75280
0.67034	86623.92523	2416.75280
0.66852	86532.07285	2415.75280
0.66671	86440.36319	2414.75280
0.66490	86348.79564	2413.75280
0.66309	86257.36962	2412.75280
0.66128	86166.08451	2411.75280
0.65948	86074.93973	2410.75280
0.65768	85983.93466	2409.75280
0.65589	85893.06873	2408.75280
0.65409	85802.34133	2407.75280
0.65231	85711.75188	2406.75280
0.65052	85621.29978	2405.75280
0.64874	85530.98445	2404.75280
0.64696	85440.80531	2403.75280
0.64519	85350.76177	2402.75280
0.64341	85260.85324	2401.75280
0.64165	85171.07916	2400.75280
0.63988	85081.43894	2399.75280
0.63812	84991.93201	2398.75280
0.63636	84902.55778	2397.75280
0.63460	84813.31570	2396.75280
0.63285	84724.20518	2395.75280
0.63110	84635.22566	2394.75280
0.62936	84546.37657	2393.75280
0.62761	84457.65734	2392.75280
0.62588	84369.06741	2391.75280
0.62414	84280.60622	2390.75280
0.62241	84192.27320	2389.75280
0.62067	84104.06780	2388.75280
0.61895	84015.98945	2387.75280
0.61722	83928.03760	2386.75280
0.61550	83840.21169	2385.75280
0.61378	83752.51117	2384.75280
0.61207	83664.93549	2383.75280
0.61036	83577.48409	2382.75280
0.60865	83490.15643	2381.75280
0.60694	83402.95195	2380.75280
0.60524	83315.87011	2379.75280
0.60354	83228.91037	2378.75280
0.60184	83142.07218	2377.75280
0.60014	83055.35499	2376.75280
0.59845	82968.75826	2375.75280
0.59676	82882.28146	2374.75280
0.59507	82795.92404	2373.75280
0.59339	82709.68547	2372.75280
0.59171	82623.56520	2371.75280
0.59003	82537.56271	2370.75280
0.58836	82451.67745	2369.75280
0.58668	82365.90890	2368.75280
0.58501	82280.25651	2367.75280
0.58335	82194.71977	2366.75280
0.58168	82109.29813	2365.75280
0.58002	82023.99107	2364.75280
0.57836	81938.79806	2363.75280
0.57670	81853.71857	2362.75280
0.57505	81768.75208	2361.75280
0.57340	81683.89805	2360.75280
0.57175	81599.15597	2359.75280
0.57010	81514.52531	2358.75280
0.56846	81430.00555	2357.75280
0.56681	81345.59616	2356.75280
0.56518	81261.29662	2355.75280
0.56354	81177.10642	2354.75280
0.56190	81093.02502	2353.75280
0.56027	81009.05192	2352.75280
0.55864	80925.18659	2351.75280
0.55702	80841.42852	2350.75280
0.55539	80757.77719	2349.75280
0.55377	80674.23207	2348.75280
0.55215	80590.79266	2347.75280
0.55053	80507.45844	2346.75280
0.54892	80424.22889	2345.75280
0.54730	80341.10350	2344.75280
0.54569	80258.08176	2343.75280
0.54408	80175.16315	2342.75280
0.54248	80092.34715	2341.75280
0.54087	80009.63326	2340.75280
0.53927	79927.02096	2339.75280
0.53767	79844.50973	2338.75280
0.53607	79762.09908	2337.75280
0.53448	79679.78848	2336.75280
0.53289	79597.57742	2335.75280
0.53129	79515.46539	2334.75280
0.52970	79433.45188	2333.75280
0.52812	79351.53639	2332.75280
0.52653	79269.71838	2331.75280
0.52495	79187.99737	2330.75280
0.52337	79106.37283	2329.75280
0.52179	79024.84426	2328.75280
0.52021	78943.41114	2327.75280
0.51864	78862.07296	2326.75280
0.51706	78780.82921	2325.75280
0.51549	78699.67938	2324.75280
0.51392	78618.62296	2323.75280
0.51236	78537.65943	2322.75280
0.51079	78456.78828	2321.75280
0.50923	78376.00901	2320.75280
0.50766	78295.32109	2319.75280
0.50610	78214.72402	2318.75280
0.50454	78134.21727	2317.75280
0.50299	78053.80035	2316.75280
0.50143	77973.47272	2315.75280
0.49988	77893.23388	2314.75280
0.49833	77813.08331	2313.75280
0.49678	77733.02049	2312.75280
0.49523	77653.04490	2311.75280
0.49368	77573.15604	2310.75280
0.49214	77493.35337	2309.75280
0.49059	77413.63638	2308.75280
0.48905	77334.00454	2307.75280
0.48751	77254.45735	2306.75280
0.48597	77174.99426	2305.75280
0.48443	77095.61477	2304.75280
0.48290	77016.31834	2303.75280
0.48136	76937.10445	2302.75280
0.47983	76857.97257	2301.75280
0.47830	76778.92218	2300.75280
0.47677	76699.95274	2299.75280
0.47524	76621.06372	2298.75280
0.47371	76542.25459	2297.75280
0.47219	76463.52481	2296.75280
0.47066	76384.87386	2295.75280
0.46914	76306.30118	2294.75280
0.46762	76227.80625	2293.75280
0.46609	76149.38852	2292.75280
0.46457	76071.04746	2291.75280
0.46306	75992.78250	2290.75280
0.46154	75914.59312	2289.75280
0.46002	75836.47875	2288.75280
0.45851	75758.43886	2287.75280
0.45699	75680.47288	2286.75280
0.45548	75602.58026	2285.75280
0.45397	75524.76044	2284.75280
0.45246	75447.01287	2283.75280
0.45095	75369.33698	2282.75280
0.44944	75291.73221	2281.75280
0.44793	75214.19798	2280.75280
0.44642	75136.73373	2279.75280
0.44492	75059.33889	2278.75280
0.44341	74982.01288	2277.75280
0.44191	74904.75511	2276.75280
0.44040	74827.56501	2275.75280
0.43890	74750.44199	2274.75280
0.43740	74673.38547	2273.75280
0.43589	74596.39484	2272.75280
0.43439	74519.46952	2271.75280
0.43289	74442.60890	2270.75280
0.43139	74365.81238	2269.75280
0.42990	74289.07935	2268.75280
0.42840	74212.40920	2267.75280
0.42690	74135.80132	2266.75280
0.42540	74059.25509	2265.75280
0.42391	73982.76988	2264.75280
0.42241	73906.34507	2263.75280
0.42092	73829.98001	2262.75280
0.41942	73753.67408	2261.75280
0.41793	73677.42663	2260.75280
0.41643	73601.23702	2259.75280
0.41494	73525.10458	2258.75280
0.41344	73449.02866	2257.75280
0.41195	73373.00861	2256.75280
0.41046	73297.04374	2255.75280
0.40896	73221.13338	2254.75280
0.40747	73145.27686	2253.75280
0.40598	73069.47348	2252.75280
0.40449	72993.72255	2251.75280
0.40299	72918.02337	2250.75280
0.40150	72842.37524	2249.75280
0.40001	72766.77743	2248.75280
0.39852	72691.22924	2247.75280
0.39702	72615.72992	2246.75280
0.39553	72540.27876	2245.75280
0.39404	72464.87499	2244.75280
0.39255	72389.51787	2243.75280
0.39105	72314.20665	2242.75280
0.38956	72238.94055	2241.75280
0.38807	72163.71880	2240.75280
0.38657	72088.54060	2239.75280
0.38508	72013.40518	2238.75280
0.38358	71938.31172	2237.75280
0.38209	71863.25940	2236.75280
0.38059	71788.24741	2235.75280
0.37910	71713.27492	2234.75280
0.37760	71638.34107	2233.75280
0.37610	71563.44501	2232.75280
0.37461	71488.58588	2231.75280
0.37311	71413.76279	2230.75280
0.37161	71338.97486	2229.75280
0.37011	71264.22118	2228.75280
0.36861	71189.50084	2227.75280
0.36710	71114.81292	2226.75280
0.36560	71040.15646	2225.75280
0.36410	70965.53052	2224.75280
0.36259	70890.93412	2223.75280
0.36109	70816.36629	2222.75280
0.35958	70741.82602	2221.75280
0.35807	70667.31229	2220.75280
0.35656	70592.82409	2219.75280
0.35505	70518.36035	2218.75280
0.35354	70443.92002	2217.75280
0.35203	70369.50201	2216.75280
0.35051	70295.10523	2215.75280
0.34900	70220.72855	2214.75280
0.34748	70146.37084	2213.75280
0.34596	70072.03094	2212.75280
0.34444	69997.70767	2211.75280
0.34292	69923.39983	2210.75280
0.34139	69849.10620	2209.75280
0.33986	69774.82554	2208.75280
0.33834	69700.55658	2207.75280
0.33680	69626.29802	2206.75280
0.33527	69552.04855	2205.75280
0.33374	69477.80682	2204.75280
0.33220	69403.57148	2203.75280
0.33066	69329.34111	2202.75280
0.32912	69255.11430	2201.75280
0.32758	69180.88959	2200.75280
0.32603	69106.66549	2199.75280
0.32448	69032.44049	2198.75280
0.32293	68958.21304	2197.75280
0.32137	68883.98155	2196.75280
0.31981	68809.74440	2195.75280
0.31825	68735.49994	2194.75280
0.31669	68661.24647	2193.75280
0.31512	68586.98227	2192.75280
0.31355	68512.70556	2191.75280
0.31198	68438.41452	2190.75280
0.31040	68364.10730	2189.75280
0.30882	68289.78199	2188.75280
0.30724	68215.43665	2187.75280
0.30565	68141.06926	2186.75280
0.30406	68066.67779	2185.75280
0.30246	67992.26012	2184.75280
0.30086	67917.81410	2183.75280
0.29926	67843.33752	2182.75280
0.29765	67768.82810	2181.75280
0.29604	67694.28350	2180.75280
0.29442	67619.70132	2179.75280
0.29280	67545.07911	2178.75280
0.29117	67470.41430	2177.75280
0.28954	67395.70431	2176.75280
0.28791	67320.94644	2175.75280
0.28626	67246.13793	2174.75280
0.28462	67171.27593	2173.75280
0.28296	67096.35750	2172.75280
0.28130	67021.37963	2171.75280
0.27964	66946.33920	2170.75280
0.27797	66871.23298	2169.75280
0.27629	66796.05766	2168.75280
0.27461	66720.80982	2167.75280
0.27292	66645.48591	2166.75280
0.27122	66570.08227	2165.75280
0.26952	66494.59513	2164.75280
0.26781	66419.02056	2163.75280
0.26609	66343.35453	2162.75280
0.26436	66267.59284	2161.75280
0.26263	66191.73115	2160.75280
0.26088	66115.76495	2159.75280
0.25913	66039.68958	2158.75280
0.25737	65963.50020	2157.75280
0.25561	65887.19178	2156.75280
0.25383	65810.75909	2155.75280
0.25204	65734.19671	2154.75280
0.25024	65657.49899	2153.75280
0.24844	65580.66006	2152.75280
0.24662	65503.67379	2151.75280
0.24479	65426.53382	2150.75280
0.24295	65349.23351	2149.75280
0.24110	65271.76590	2148.75280
0.23924	65194.12377	2147.75280
0.23736	65116.29955	2146.75280
0.23547	65038.28533	2145.75280
0.23357	64960.07284	2144.75280
0.23166	64881.65339	2143.75280
0.22973	64803.01791	2142.75280
0.22778	64724.15686	2141.75280
0.22583	64645.06024	2140.75280
0.22385	64565.71752	2139.75280
0.22186	64486.11765	2138.75280
0.21985	64406.24897	2137.75280
0.21783	64326.09921	2136.75280
0.21578	64245.65542	2135.75280
0.21372	64164.90391	2134.75280
0.21164	64083.83021	2133.75280
0.20954	64002.41903	2132.75280
0.20741	63920.65412	2131.75280
0.20526	63838.51827	2130.75280
0.20309	63755.99317	2129.75280
0.20090	63673.05935	2128.75280
0.19869	63589.87886	2127.75280
0.19644	63506.06143	2126.75280
0.19417	63421.76204	2125.75280
0.19186	63336.95513	2124.75280
0.18953	63251.61328	2123.75280
0.18716	63165.70707	2122.75280
0.18476	63079.20482	2121.75280
0.18233	62992.07238	2120.75280
0.17985	62904.27287	2119.75280
0.17734	62815.76633	2118.75280
0.17478	62726.50942	2117.75280
0.17219	62636.45497	2116.75280
0.16954	62545.55151	2115.75280
0.16684	62453.74277	2114.75280
0.16409	62360.96700	2113.75280
0.16128	62267.15624	2112.75280
0.15842	62172.23545	2111.75280
0.15548	62076.12147	2110.75280
0.15248	61978.72182	2109.75280
0.14940	61879.93319	2108.75280
0.14624	61779.63969	2107.75280
0.14299	61677.71073	2106.75280
0.13965	61573.99836	2105.75280
0.13620	61468.33413	2104.75280
0.13263	61360.52505	2103.75280
0.12894	61250.34869	2102.75280
0.12511	61137.54694	2101.75280
0.12113	61021.81809	2100.75280
0.11696	60902.80682	2099.75280
0.11261	60780.09130	2098.75280
0.10803	60653.16653	2097.75280
0.10319	60521.42315	2096.75280
0.09806	60384.12044	2095.75280
0.09259	60240.35362	2094.75280
0.08673	60089.01764	2093.75280
0.08039	59928.77823	2092.75280
0.07350	59758.08338	2091.75280
0.06598	59575.30658	2090.75280
0.05776	59379.24681	2089.75280
0.04886	59170.42275	2088.75280
0.03953	58953.53234	2087.75280
0.03034	58739.81435	2086.75280
0.02210	58544.94815	2085.75280
0.01546	58380.98567	2084.75280
0.01054	58250.49257	2083.75280
0.00710	58148.59895	2082.75280
