Mole fraction of liquid	Heat per mole [J]	Temperature [K]
1.00000	1.01698E5	2554.21641
0.99999	1.01694E5	2554.12078
0.99760	1.01580E5	2553.12078
0.99522	1.01466E5	2552.12078
0.99285	1.01353E5	2551.12078
0.99048	1.01240E5	2550.12078
0.98812	1.01127E5	2549.12078
0.98577	1.01014E5	2548.12078
0.98342	1.00902E5	2547.12078
0.98108	1.00790E5	2546.12078
0.97875	1.00678E5	2545.12078
0.97642	1.00566E5	2544.12078
0.97410	1.00454E5	2543.12078
0.97178	1.00343E5	2542.12078
0.96947	1.00232E5	2541.12078
0.96717	1.00121E5	2540.12078
0.96487	1.00011E5	2539.12078
0.96258	99900.15372	2538.12078
0.96029	99789.99547	2537.12078
0.95801	99680.06133	2536.12078
0.95574	99570.35038	2535.12078
0.95347	99460.86170	2534.12078
0.95121	99351.59439	2533.12078
0.94895	99242.54754	2532.12078
0.94670	99133.72025	2531.12078
0.94446	99025.11162	2530.12078
0.94222	98916.72076	2529.12078
0.93999	98808.54678	2528.12078
0.93776	98700.58880	2527.12078
0.93554	98592.84594	2526.12078
0.93333	98485.31733	2525.12078
0.93112	98378.00208	2524.12078
0.92891	98270.89935	2523.12078
0.92671	98164.00826	2522.12078
0.92452	98057.32795	2521.12078
0.92234	97950.85758	2520.12078
0.92015	97844.59629	2519.12078
0.91798	97738.54323	2518.12078
0.91581	97632.69757	2517.12078
0.91364	97527.05846	2516.12078
0.91149	97421.62508	2515.12078
0.90933	97316.39659	2514.12078
0.90718	97211.37216	2513.12078
0.90504	97106.55098	2512.12078
0.90291	97001.93222	2511.12078
0.90077	96897.51508	2510.12078
0.89865	96793.29873	2509.12078
0.89653	96689.28238	2508.12078
0.89441	96585.46522	2507.12078
0.89230	96481.84646	2506.12078
0.89020	96378.42529	2505.12078
0.88810	96275.20092	2504.12078
0.88600	96172.17258	2503.12078
0.88391	96069.33947	2502.12078
0.88183	95966.70081	2501.12078
0.87975	95864.25583	2500.12078
0.87768	95762.00375	2499.12078
0.87561	95659.94381	2498.12078
0.87354	95558.07524	2497.12078
0.87149	95456.39728	2496.12078
0.86943	95354.90916	2495.12078
0.86739	95253.61013	2494.12078
0.86534	95152.49945	2493.12078
0.86330	95051.57636	2492.12078
0.86127	94950.84012	2491.12078
0.85924	94850.28999	2490.12078
0.85722	94749.92522	2489.12078
0.85520	94649.74509	2488.12078
0.85319	94549.74887	2487.12078
0.85118	94449.93582	2486.12078
0.84918	94350.30522	2485.12078
0.84718	94250.85636	2484.12078
0.84519	94151.58851	2483.12078
0.84320	94052.50096	2482.12078
0.84121	93953.59300	2481.12078
0.83923	93854.86392	2480.12078
0.83726	93756.31302	2479.12078
0.83529	93657.93959	2478.12078
0.83332	93559.74294	2477.12078
0.83136	93461.72237	2476.12078
0.82941	93363.87719	2475.12078
0.82746	93266.20671	2474.12078
0.82551	93168.71026	2473.12078
0.82357	93071.38713	2472.12078
0.82163	92974.23666	2471.12078
0.81970	92877.25817	2470.12078
0.81777	92780.45098	2469.12078
0.81585	92683.81444	2468.12078
0.81393	92587.34785	2467.12078
0.81202	92491.05058	2466.12078
0.81011	92394.92194	2465.12078
0.80820	92298.96130	2464.12078
0.80630	92203.16798	2463.12078
0.80440	92107.54134	2462.12078
0.80251	92012.08072	2461.12078
0.80062	91916.78549	2460.12078
0.79874	91821.65500	2459.12078
0.79686	91726.68861	2458.12078
0.79499	91631.88567	2457.12078
0.79312	91537.24556	2456.12078
0.79125	91442.76764	2455.12078
0.78939	91348.45129	2454.12078
0.78753	91254.29587	2453.12078
0.78568	91160.30076	2452.12078
0.78383	91066.46535	2451.12078
0.78199	90972.78900	2450.12078
0.78015	90879.27112	2449.12078
0.77831	90785.91108	2448.12078
0.77648	90692.70827	2447.12078
0.77465	90599.66209	2446.12078
0.77283	90506.77192	2445.12078
0.77101	90414.03718	2444.12078
0.76919	90321.45726	2443.12078
0.76738	90229.03155	2442.12078
0.76557	90136.75948	2441.12078
0.76377	90044.64044	2440.12078
0.76197	89952.67384	2439.12078
0.76017	89860.85910	2438.12078
0.75838	89769.19564	2437.12078
0.75660	89677.68287	2436.12078
0.75481	89586.32021	2435.12078
0.75303	89495.10708	2434.12078
0.75126	89404.04292	2433.12078
0.74949	89313.12714	2432.12078
0.74772	89222.35918	2431.12078
0.74596	89131.73848	2430.12078
0.74420	89041.26446	2429.12078
0.74244	88950.93657	2428.12078
0.74069	88860.75424	2427.12078
0.73894	88770.71692	2426.12078
0.73720	88680.82405	2425.12078
0.73546	88591.07508	2424.12078
0.73372	88501.46946	2423.12078
0.73199	88412.00663	2422.12078
0.73026	88322.68606	2421.12078
0.72853	88233.50720	2420.12078
0.72681	88144.46950	2419.12078
0.72509	88055.57243	2418.12078
0.72338	87966.81546	2417.12078
0.72166	87878.19804	2416.12078
0.71996	87789.71964	2415.12078
0.71825	87701.37974	2414.12078
0.71655	87613.17780	2413.12078
0.71486	87525.11329	2412.12078
0.71316	87437.18571	2411.12078
0.71148	87349.39451	2410.12078
0.70979	87261.73919	2409.12078
0.70811	87174.21922	2408.12078
0.70643	87086.83408	2407.12078
0.70475	86999.58328	2406.12078
0.70308	86912.46629	2405.12078
0.70141	86825.48260	2404.12078
0.69975	86738.63170	2403.12078
0.69809	86651.91310	2402.12078
0.69643	86565.32629	2401.12078
0.69477	86478.87076	2400.12078
0.69312	86392.54602	2399.12078
0.69148	86306.35157	2398.12078
0.68983	86220.28691	2397.12078
0.68819	86134.35156	2396.12078
0.68655	86048.54501	2395.12078
0.68492	85962.86678	2394.12078
0.68329	85877.31638	2393.12078
0.68166	85791.89333	2392.12078
0.68004	85706.59713	2391.12078
0.67841	85621.42732	2390.12078
0.67680	85536.38340	2389.12078
0.67518	85451.46491	2388.12078
0.67357	85366.67135	2387.12078
0.67196	85282.00227	2386.12078
0.67036	85197.45718	2385.12078
0.66875	85113.03561	2384.12078
0.66716	85028.73710	2383.12078
0.66556	84944.56118	2382.12078
0.66397	84860.50737	2381.12078
0.66238	84776.57522	2380.12078
0.66079	84692.76427	2379.12078
0.65921	84609.07404	2378.12078
0.65763	84525.50409	2377.12078
0.65605	84442.05396	2376.12078
0.65448	84358.72319	2375.12078
0.65291	84275.51132	2374.12078
0.65134	84192.41791	2373.12078
0.64977	84109.44250	2372.12078
0.64821	84026.58464	2371.12078
0.64665	83943.84389	2370.12078
0.64510	83861.21979	2369.12078
0.64354	83778.71192	2368.12078
0.64199	83696.31981	2367.12078
0.64045	83614.04304	2366.12078
0.63890	83531.88115	2365.12078
0.63736	83449.83372	2364.12078
0.63582	83367.90031	2363.12078
0.63429	83286.08047	2362.12078
0.63275	83204.37379	2361.12078
0.63122	83122.77982	2360.12078
0.62970	83041.29813	2359.12078
0.62817	82959.92829	2358.12078
0.62665	82878.66989	2357.12078
0.62513	82797.52248	2356.12078
0.62361	82716.48565	2355.12078
0.62210	82635.55897	2354.12078
0.62059	82554.74202	2353.12078
0.61908	82474.03438	2352.12078
0.61758	82393.43563	2351.12078
0.61607	82312.94535	2350.12078
0.61457	82232.56312	2349.12078
0.61308	82152.28853	2348.12078
0.61158	82072.12117	2347.12078
0.61009	81992.06062	2346.12078
0.60860	81912.10647	2345.12078
0.60711	81832.25830	2344.12078
0.60563	81752.51572	2343.12078
0.60415	81672.87832	2342.12078
0.60267	81593.34568	2341.12078
0.60119	81513.91740	2340.12078
0.59972	81434.59308	2339.12078
0.59825	81355.37231	2338.12078
0.59678	81276.25470	2337.12078
0.59531	81197.23984	2336.12078
0.59385	81118.32733	2335.12078
0.59239	81039.51678	2334.12078
0.59093	80960.80779	2333.12078
0.58947	80882.19996	2332.12078
0.58802	80803.69290	2331.12078
0.58657	80725.28621	2330.12078
0.58512	80646.97950	2329.12078
0.58367	80568.77238	2328.12078
0.58223	80490.66447	2327.12078
0.58078	80412.65536	2326.12078
0.57934	80334.74468	2325.12078
0.57791	80256.93203	2324.12078
0.57647	80179.21702	2323.12078
0.57504	80101.59929	2322.12078
0.57361	80024.07843	2321.12078
0.57218	79946.65406	2320.12078
0.57075	79869.32581	2319.12078
0.56933	79792.09329	2318.12078
0.56791	79714.95612	2317.12078
0.56649	79637.91393	2316.12078
0.56507	79560.96632	2315.12078
0.56366	79484.11293	2314.12078
0.56225	79407.35338	2313.12078
0.56084	79330.68729	2312.12078
0.55943	79254.11429	2311.12078
0.55802	79177.63399	2310.12078
0.55662	79101.24604	2309.12078
0.55522	79024.95005	2308.12078
0.55382	78948.74566	2307.12078
0.55242	78872.63248	2306.12078
0.55102	78796.61016	2305.12078
0.54963	78720.67832	2304.12078
0.54824	78644.83660	2303.12078
0.54685	78569.08461	2302.12078
0.54546	78493.42201	2301.12078
0.54407	78417.84841	2300.12078
0.54269	78342.36346	2299.12078
0.54131	78266.96678	2298.12078
0.53993	78191.65802	2297.12078
0.53855	78116.43680	2296.12078
0.53718	78041.30277	2295.12078
0.53580	77966.25556	2294.12078
0.53443	77891.29481	2293.12078
0.53306	77816.42015	2292.12078
0.53169	77741.63123	2291.12078
0.53033	77666.92768	2290.12078
0.52896	77592.30914	2289.12078
0.52760	77517.77525	2288.12078
0.52624	77443.32566	2287.12078
0.52488	77368.96000	2286.12078
0.52352	77294.67791	2285.12078
0.52217	77220.47904	2284.12078
0.52082	77146.36303	2283.12078
0.51946	77072.32952	2282.12078
0.51811	76998.37815	2281.12078
0.51677	76924.50856	2280.12078
0.51542	76850.72041	2279.12078
0.51407	76777.01332	2278.12078
0.51273	76703.38695	2277.12078
0.51139	76629.84095	2276.12078
0.51005	76556.37494	2275.12078
0.50871	76482.98859	2274.12078
0.50738	76409.68153	2273.12078
0.50604	76336.45341	2272.12078
0.50471	76263.30388	2271.12078
0.50338	76190.23257	2270.12078
0.50205	76117.23914	2269.12078
0.50072	76044.32322	2268.12078
0.49939	75971.48448	2267.12078
0.49806	75898.72254	2266.12078
0.49674	75826.03706	2265.12078
0.49542	75753.42768	2264.12078
0.49410	75680.89405	2263.12078
0.49278	75608.43581	2262.12078
0.49146	75536.05261	2261.12078
0.49014	75463.74410	2260.12078
0.48883	75391.50991	2259.12078
0.48751	75319.34969	2258.12078
0.48620	75247.26309	2257.12078
0.48489	75175.24976	2256.12078
0.48358	75103.30933	2255.12078
0.48227	75031.44146	2254.12078
0.48096	74959.64578	2253.12078
0.47966	74887.92194	2252.12078
0.47835	74816.26958	2251.12078
0.47705	74744.68834	2250.12078
0.47575	74673.17787	2249.12078
0.47445	74601.73781	2248.12078
0.47315	74530.36780	2247.12078
0.47185	74459.06748	2246.12078
0.47055	74387.83650	2245.12078
0.46926	74316.67448	2244.12078
0.46796	74245.58108	2243.12078
0.46667	74174.55593	2242.12078
0.46538	74103.59866	2241.12078
0.46409	74032.70893	2240.12078
0.46280	73961.88635	2239.12078
0.46151	73891.13057	2238.12078
0.46022	73820.44123	2237.12078
0.45893	73749.81795	2236.12078
0.45764	73679.26038	2235.12078
0.45636	73608.76814	2234.12078
0.45508	73538.34086	2233.12078
0.45379	73467.97819	2232.12078
0.45251	73397.67974	2231.12078
0.45123	73327.44514	2230.12078
0.44995	73257.27402	2229.12078
0.44867	73187.16602	2228.12078
0.44739	73117.12075	2227.12078
0.44611	73047.13783	2226.12078
0.44484	72977.21690	2225.12078
0.44356	72907.35757	2224.12078
0.44229	72837.55946	2223.12078
0.44101	72767.82219	2222.12078
0.43974	72698.14538	2221.12078
0.43847	72628.52865	2220.12078
0.43719	72558.97160	2219.12078
0.43592	72489.47385	2218.12078
0.43465	72420.03501	2217.12078
0.43338	72350.65469	2216.12078
0.43211	72281.33250	2215.12078
0.43084	72212.06804	2214.12078
0.42958	72142.86092	2213.12078
0.42831	72073.71073	2212.12078
0.42704	72004.61709	2211.12078
0.42578	71935.57958	2210.12078
0.42451	71866.59780	2209.12078
0.42325	71797.67134	2208.12078
0.42198	71728.79979	2207.12078
0.42072	71659.98275	2206.12078
0.41945	71591.21980	2205.12078
0.41819	71522.51053	2204.12078
0.41693	71453.85450	2203.12078
0.41566	71385.25131	2202.12078
0.41440	71316.70053	2201.12078
0.41314	71248.20173	2200.12078
0.41188	71179.75448	2199.12078
0.41062	71111.35835	2198.12078
0.40936	71043.01291	2197.12078
0.40810	70974.71770	2196.12078
0.40683	70906.47230	2195.12078
0.40557	70838.27626	2194.12078
0.40431	70770.12913	2193.12078
0.40305	70702.03045	2192.12078
0.40179	70633.97977	2191.12078
0.40053	70565.97663	2190.12078
0.39927	70498.02057	2189.12078
0.39802	70430.11112	2188.12078
0.39676	70362.24781	2187.12078
0.39550	70294.43017	2186.12078
0.39424	70226.65770	2185.12078
0.39298	70158.92994	2184.12078
0.39172	70091.24639	2183.12078
0.39046	70023.60656	2182.12078
0.38920	69956.00996	2181.12078
0.38794	69888.45607	2180.12078
0.38668	69820.94439	2179.12078
0.38542	69753.47441	2178.12078
0.38415	69686.04562	2177.12078
0.38289	69618.65748	2176.12078
0.38163	69551.30947	2175.12078
0.38037	69484.00106	2174.12078
0.37911	69416.73171	2173.12078
0.37784	69349.50086	2172.12078
0.37658	69282.30797	2171.12078
0.37532	69215.15247	2170.12078
0.37405	69148.03381	2169.12078
0.37279	69080.95141	2168.12078
0.37152	69013.90469	2167.12078
0.37026	68946.89306	2166.12078
0.36899	68879.91593	2165.12078
0.36772	68812.97270	2164.12078
0.36646	68746.06277	2163.12078
0.36519	68679.18550	2162.12078
0.36392	68612.34029	2161.12078
0.36265	68545.52648	2160.12078
0.36138	68478.74346	2159.12078
0.36010	68411.99055	2158.12078
0.35883	68345.26710	2157.12078
0.35756	68278.57245	2156.12078
0.35628	68211.90590	2155.12078
0.35501	68145.26678	2154.12078
0.35373	68078.65438	2153.12078
0.35245	68012.06799	2152.12078
0.35117	67945.50689	2151.12078
0.34989	67878.97034	2150.12078
0.34861	67812.45761	2149.12078
0.34732	67745.96793	2148.12078
0.34604	67679.50054	2147.12078
0.34475	67613.05466	2146.12078
0.34347	67546.62948	2145.12078
0.34218	67480.22421	2144.12078
0.34089	67413.83801	2143.12078
0.33959	67347.47006	2142.12078
0.33830	67281.11950	2141.12078
0.33700	67214.78547	2140.12078
0.33571	67148.46708	2139.12078
0.33441	67082.16343	2138.12078
0.33310	67015.87362	2137.12078
0.33180	66949.59670	2136.12078
0.33050	66883.33172	2135.12078
0.32919	66817.07772	2134.12078
0.32788	66750.83371	2133.12078
0.32657	66684.59867	2132.12078
0.32525	66618.37159	2131.12078
0.32394	66552.15141	2130.12078
0.32262	66485.93706	2129.12078
0.32130	66419.72745	2128.12078
0.31997	66353.56843	2127.12078
0.31865	66287.36205	2126.12078
0.31732	66221.15470	2125.12078
0.31599	66154.94513	2124.12078
0.31465	66088.73204	2123.12078
0.31331	66022.51412	2122.12078
0.31197	65956.29002	2121.12078
0.31063	65890.05837	2120.12078
0.30928	65823.81774	2119.12078
0.30793	65757.56670	2118.12078
0.30658	65691.30378	2117.12078
0.30522	65625.02745	2116.12078
0.30386	65558.73617	2115.12078
0.30250	65492.42835	2114.12078
0.30113	65426.10238	2113.12078
0.29976	65359.75657	2112.12078
0.29838	65293.38922	2111.12078
0.29700	65226.99858	2110.12078
0.29562	65160.58285	2109.12078
0.29423	65094.14018	2108.12078
0.29284	65027.66867	2107.12078
0.29144	64961.16638	2106.12078
0.29004	64894.63131	2105.12078
0.28863	64828.06139	2104.12078
0.28722	64761.45452	2103.12078
0.28580	64694.80851	2102.12078
0.28438	64628.12112	2101.12078
0.28296	64561.39006	2100.12078
0.28152	64494.61294	2099.12078
0.28009	64427.78732	2098.12078
0.27864	64360.91068	2097.12078
0.27719	64293.98042	2096.12078
0.27574	64226.99386	2095.12078
0.27428	64159.94823	2094.12078
0.27281	64092.84067	2093.12078
0.27133	64025.66824	2092.12078
0.26985	63958.42788	2091.12078
0.26837	63891.11645	2090.12078
0.26687	63823.73068	2089.12078
0.26537	63756.26720	2088.12078
0.26386	63688.72252	2087.12078
0.26234	63621.09302	2086.12078
0.26081	63553.37496	2085.12078
0.25928	63485.56444	2084.12078
0.25774	63417.65744	2083.12078
0.25618	63349.64977	2082.12078
0.25462	63281.53708	2081.12078
0.25305	63213.31485	2080.12078
0.25147	63144.97840	2079.12078
0.24988	63076.52283	2078.12078
0.24828	63007.94305	2077.12078
0.24667	62939.23377	2076.12078
0.24505	62870.38947	2075.12078
0.24342	62801.40438	2074.12078
0.24178	62732.27248	2073.12078
0.24012	62662.98750	2072.12078
0.23845	62593.54287	2071.12078
0.23677	62523.93171	2070.12078
0.23507	62454.14684	2069.12078
0.23337	62384.18072	2068.12078
0.23164	62314.02545	2067.12078
0.22991	62243.67274	2066.12078
0.22815	62173.11387	2065.12078
0.22638	62102.33969	2064.12078
0.22460	62031.34055	2063.12078
0.22280	61960.10631	2062.12078
0.22098	61888.62626	2061.12078
0.21914	61816.88911	2060.12078
0.21728	61744.88290	2059.12078
0.21540	61672.59502	2058.12078
0.21351	61600.01208	2057.12078
0.21159	61527.11991	2056.12078
0.20964	61453.90345	2055.12078
0.20768	61380.34668	2054.12078
0.20569	61306.43258	2053.12078
0.20367	61232.14297	2052.12078
0.20163	61157.45848	2051.12078
0.19955	61082.35836	2050.12078
0.19745	61006.82043	2049.12078
0.19532	60930.82086	2048.12078
0.19316	60854.33407	2047.12078
0.19096	60777.33252	2046.12078
0.18872	60699.78648	2045.12078
0.18645	60621.66385	2044.12078
0.18413	60542.92984	2043.12078
0.18178	60463.54670	2042.12078
0.17938	60383.47336	2041.12078
0.17693	60302.66499	2040.12078
0.17443	60221.07261	2039.12078
0.17187	60138.64249	2038.12078
0.16926	60055.31552	2037.12078
0.16659	59971.02651	2036.12078
0.16385	59885.70331	2035.12078
0.16103	59799.26580	2034.12078
0.15815	59711.62466	2033.12078
0.15518	59622.67995	2032.12078
0.15211	59532.31942	2031.12078
0.14896	59440.41638	2030.12078
0.14569	59346.82728	2029.12078
0.14231	59251.38864	2028.12078
0.13880	59153.91340	2027.12078
0.13515	59054.18642	2026.12078
0.13135	58951.95905	2025.12078
0.12737	58846.94243	2024.12078
0.12319	58738.79956	2023.12078
0.11880	58627.13575	2022.12078
0.11416	58511.48788	2021.12078
0.10924	58391.31302	2020.12078
0.10400	58265.97887	2019.12078
0.09840	58134.76102	2018.12078
0.09238	57996.85913	2017.12078
0.08589	57851.45619	2016.12078
0.07890	57697.86653	2015.12078
0.07139	57535.84492	2014.12078
0.06339	57366.12632	2013.12078
0.05505	57191.13888	2012.12078
0.04665	57015.48040	2011.12078
0.03857	56845.42526	2010.12078
0.03119	56687.21025	2009.12078
0.02477	56545.10605	2008.12078
0.01941	56420.61177	2007.12078
0.01506	56312.94704	2006.12078
0.01161	56220.06144	2005.12078
0.00891	56139.48874	2004.12078
