Mole fraction of liquid	Heat per mole [J]	Temperature [K]
1.00000	1.07436E5	2665.41627
0.99999	1.07432E5	2665.32065
0.99753	1.07311E5	2664.32065
0.99509	1.07191E5	2663.32065
0.99266	1.07071E5	2662.32065
0.99023	1.06952E5	2661.32065
0.98781	1.06833E5	2660.32065
0.98539	1.06714E5	2659.32065
0.98299	1.06595E5	2658.32065
0.98059	1.06477E5	2657.32065
0.97820	1.06359E5	2656.32065
0.97581	1.06241E5	2655.32065
0.97344	1.06123E5	2654.32065
0.97107	1.06006E5	2653.32065
0.96871	1.05889E5	2652.32065
0.96635	1.05772E5	2651.32065
0.96401	1.05656E5	2650.32065
0.96167	1.05540E5	2649.32065
0.95933	1.05424E5	2648.32065
0.95701	1.05308E5	2647.32065
0.95469	1.05193E5	2646.32065
0.95238	1.05078E5	2645.32065
0.95008	1.04963E5	2644.32065
0.94778	1.04848E5	2643.32065
0.94549	1.04734E5	2642.32065
0.94321	1.04620E5	2641.32065
0.94093	1.04506E5	2640.32065
0.93866	1.04392E5	2639.32065
0.93640	1.04279E5	2638.32065
0.93414	1.04166E5	2637.32065
0.93189	1.04053E5	2636.32065
0.92965	1.03941E5	2635.32065
0.92742	1.03829E5	2634.32065
0.92519	1.03717E5	2633.32065
0.92297	1.03605E5	2632.32065
0.92075	1.03493E5	2631.32065
0.91854	1.03382E5	2630.32065
0.91634	1.03271E5	2629.32065
0.91414	1.03160E5	2628.32065
0.91196	1.03050E5	2627.32065
0.90977	1.02940E5	2626.32065
0.90760	1.02830E5	2625.32065
0.90543	1.02720E5	2624.32065
0.90327	1.02610E5	2623.32065
0.90111	1.02501E5	2622.32065
0.89896	1.02392E5	2621.32065
0.89682	1.02283E5	2620.32065
0.89468	1.02174E5	2619.32065
0.89255	1.02066E5	2618.32065
0.89042	1.01958E5	2617.32065
0.88831	1.01850E5	2616.32065
0.88619	1.01742E5	2615.32065
0.88409	1.01635E5	2614.32065
0.88199	1.01528E5	2613.32065
0.87989	1.01421E5	2612.32065
0.87781	1.01314E5	2611.32065
0.87573	1.01208E5	2610.32065
0.87365	1.01101E5	2609.32065
0.87158	1.00995E5	2608.32065
0.86952	1.00889E5	2607.32065
0.86746	1.00784E5	2606.32065
0.86541	1.00678E5	2605.32065
0.86337	1.00573E5	2604.32065
0.86133	1.00468E5	2603.32065
0.85929	1.00364E5	2602.32065
0.85727	1.00259E5	2601.32065
0.85524	1.00155E5	2600.32065
0.85323	1.00051E5	2599.32065
0.85122	99946.87863	2598.32065
0.84921	99843.24760	2597.32065
0.84722	99739.83123	2596.32065
0.84522	99636.62861	2595.32065
0.84324	99533.63882	2594.32065
0.84125	99430.86097	2593.32065
0.83928	99328.29417	2592.32065
0.83731	99225.93751	2591.32065
0.83534	99123.79011	2590.32065
0.83339	99021.85108	2589.32065
0.83143	98920.11956	2588.32065
0.82948	98818.59467	2587.32065
0.82754	98717.27553	2586.32065
0.82561	98616.16128	2585.32065
0.82368	98515.25106	2584.32065
0.82175	98414.54401	2583.32065
0.81983	98314.03929	2582.32065
0.81791	98213.73605	2581.32065
0.81601	98113.63344	2580.32065
0.81410	98013.73062	2579.32065
0.81220	97914.02677	2578.32065
0.81031	97814.52105	2577.32065
0.80842	97715.21263	2576.32065
0.80654	97616.10070	2575.32065
0.80466	97517.18443	2574.32065
0.80279	97418.46302	2573.32065
0.80092	97319.93566	2572.32065
0.79906	97221.60154	2571.32065
0.79720	97123.45986	2570.32065
0.79535	97025.50982	2569.32065
0.79350	96927.75063	2568.32065
0.79166	96830.18151	2567.32065
0.78983	96732.80167	2566.32065
0.78800	96635.61032	2565.32065
0.78617	96538.60670	2564.32065
0.78435	96441.79003	2563.32065
0.78253	96345.15954	2562.32065
0.78072	96248.71447	2561.32065
0.77892	96152.45406	2560.32065
0.77712	96056.37754	2559.32065
0.77532	95960.48417	2558.32065
0.77353	95864.77320	2557.32065
0.77174	95769.24388	2556.32065
0.76996	95673.89547	2555.32065
0.76818	95578.72724	2554.32065
0.76641	95483.73844	2553.32065
0.76464	95388.92834	2552.32065
0.76288	95294.29623	2551.32065
0.76112	95199.84138	2550.32065
0.75937	95105.56306	2549.32065
0.75762	95011.46056	2548.32065
0.75588	94917.53317	2547.32065
0.75414	94823.78018	2546.32065
0.75241	94730.20089	2545.32065
0.75068	94636.79459	2544.32065
0.74895	94543.56058	2543.32065
0.74723	94450.49818	2542.32065
0.74552	94357.60668	2541.32065
0.74381	94264.88540	2540.32065
0.74210	94172.33366	2539.32065
0.74040	94079.95077	2538.32065
0.73870	93987.73605	2537.32065
0.73701	93895.68884	2536.32065
0.73532	93803.80846	2535.32065
0.73364	93712.09425	2534.32065
0.73196	93620.54553	2533.32065
0.73028	93529.16165	2532.32065
0.72861	93437.94195	2531.32065
0.72695	93346.88577	2530.32065
0.72529	93255.99247	2529.32065
0.72363	93165.26139	2528.32065
0.72198	93074.69189	2527.32065
0.72033	92984.28333	2526.32065
0.71868	92894.03507	2525.32065
0.71704	92803.94647	2524.32065
0.71541	92714.01691	2523.32065
0.71378	92624.24574	2522.32065
0.71215	92534.63235	2521.32065
0.71053	92445.17611	2520.32065
0.70891	92355.87640	2519.32065
0.70729	92266.73261	2518.32065
0.70568	92177.74412	2517.32065
0.70408	92088.91031	2516.32065
0.70247	92000.23059	2515.32065
0.70088	91911.70433	2514.32065
0.69928	91823.33096	2513.32065
0.69769	91735.10985	2512.32065
0.69611	91647.04042	2511.32065
0.69452	91559.12207	2510.32065
0.69295	91471.35421	2509.32065
0.69137	91383.73626	2508.32065
0.68980	91296.26763	2507.32065
0.68824	91208.94773	2506.32065
0.68668	91121.77598	2505.32065
0.68512	91034.75182	2504.32065
0.68357	90947.87466	2503.32065
0.68202	90861.14393	2502.32065
0.68047	90774.55907	2501.32065
0.67893	90688.11951	2500.32065
0.67739	90601.82468	2499.32065
0.67586	90515.67403	2498.32065
0.67433	90429.66700	2497.32065
0.67280	90343.80304	2496.32065
0.67128	90258.08158	2495.32065
0.66976	90172.50208	2494.32065
0.66824	90087.06400	2493.32065
0.66673	90001.76678	2492.32065
0.66522	89916.60989	2491.32065
0.66372	89831.59279	2490.32065
0.66222	89746.71494	2489.32065
0.66072	89661.97580	2488.32065
0.65923	89577.37485	2487.32065
0.65774	89492.91155	2486.32065
0.65626	89408.58538	2485.32065
0.65478	89324.39581	2484.32065
0.65330	89240.34232	2483.32065
0.65182	89156.42439	2482.32065
0.65035	89072.64151	2481.32065
0.64889	88988.99316	2480.32065
0.64742	88905.47882	2479.32065
0.64596	88822.09800	2478.32065
0.64451	88738.85017	2477.32065
0.64305	88655.73484	2476.32065
0.64161	88572.75150	2475.32065
0.64016	88489.89965	2474.32065
0.63872	88407.17880	2473.32065
0.63728	88324.58844	2472.32065
0.63584	88242.12809	2471.32065
0.63441	88159.79726	2470.32065
0.63298	88077.59544	2469.32065
0.63156	87995.52217	2468.32065
0.63014	87913.57695	2467.32065
0.62872	87831.75930	2466.32065
0.62730	87750.06874	2465.32065
0.62589	87668.50479	2464.32065
0.62448	87587.06698	2463.32065
0.62308	87505.75484	2462.32065
0.62168	87424.56789	2461.32065
0.62028	87343.50567	2460.32065
0.61889	87262.56770	2459.32065
0.61749	87181.75352	2458.32065
0.61611	87101.06268	2457.32065
0.61472	87020.49470	2456.32065
0.61334	86940.04914	2455.32065
0.61196	86859.72553	2454.32065
0.61059	86779.52342	2453.32065
0.60922	86699.44236	2452.32065
0.60785	86619.48190	2451.32065
0.60648	86539.64159	2450.32065
0.60512	86459.92098	2449.32065
0.60376	86380.31963	2448.32065
0.60240	86300.83710	2447.32065
0.60105	86221.47295	2446.32065
0.59970	86142.22674	2445.32065
0.59835	86063.09803	2444.32065
0.59701	85984.08639	2443.32065
0.59567	85905.19138	2442.32065
0.59433	85826.41258	2441.32065
0.59300	85747.74957	2440.32065
0.59167	85669.20190	2439.32065
0.59034	85590.76916	2438.32065
0.58902	85512.45092	2437.32065
0.58769	85434.24677	2436.32065
0.58637	85356.15629	2435.32065
0.58506	85278.17905	2434.32065
0.58375	85200.31464	2433.32065
0.58244	85122.56265	2432.32065
0.58113	85044.92267	2431.32065
0.57982	84967.39429	2430.32065
0.57852	84889.97709	2429.32065
0.57722	84812.67068	2428.32065
0.57593	84735.47465	2427.32065
0.57464	84658.38860	2426.32065
0.57335	84581.41212	2425.32065
0.57206	84504.54482	2424.32065
0.57078	84427.78629	2423.32065
0.56949	84351.13615	2422.32065
0.56822	84274.59400	2421.32065
0.56694	84198.15945	2420.32065
0.56567	84121.83210	2419.32065
0.56440	84045.61157	2418.32065
0.56313	83969.49747	2417.32065
0.56187	83893.48942	2416.32065
0.56061	83817.58703	2415.32065
0.55935	83741.78992	2414.32065
0.55809	83666.09771	2413.32065
0.55684	83590.51001	2412.32065
0.55559	83515.02646	2411.32065
0.55434	83439.64668	2410.32065
0.55310	83364.37029	2409.32065
0.55185	83289.19692	2408.32065
0.55061	83214.12619	2407.32065
0.54938	83139.15775	2406.32065
0.54814	83064.29122	2405.32065
0.54691	82989.52624	2404.32065
0.54568	82914.86244	2403.32065
0.54446	82840.29946	2402.32065
0.54323	82765.83693	2401.32065
0.54201	82691.47450	2400.32065
0.54079	82617.21181	2399.32065
0.53958	82543.04850	2398.32065
0.53836	82468.98422	2397.32065
0.53715	82395.01861	2396.32065
0.53594	82321.15131	2395.32065
0.53474	82247.38199	2394.32065
0.53353	82173.71028	2393.32065
0.53233	82100.13584	2392.32065
0.53113	82026.65832	2391.32065
0.52994	81953.27739	2390.32065
0.52875	81879.99268	2389.32065
0.52755	81806.80387	2388.32065
0.52637	81733.71060	2387.32065
0.52518	81660.71255	2386.32065
0.52400	81587.80936	2385.32065
0.52282	81515.00071	2384.32065
0.52164	81442.28626	2383.32065
0.52046	81369.66568	2382.32065
0.51929	81297.13862	2381.32065
0.51812	81224.70477	2380.32065
0.51695	81152.36378	2379.32065
0.51578	81080.11534	2378.32065
0.51462	81007.95910	2377.32065
0.51345	80935.89476	2376.32065
0.51229	80863.92197	2375.32065
0.51114	80792.04043	2374.32065
0.50998	80720.24980	2373.32065
0.50883	80648.54976	2372.32065
0.50768	80576.93999	2371.32065
0.50653	80505.42018	2370.32065
0.50539	80433.99001	2369.32065
0.50424	80362.64916	2368.32065
0.50310	80291.39732	2367.32065
0.50196	80220.23417	2366.32065
0.50083	80149.15940	2365.32065
0.49969	80078.17270	2364.32065
0.49856	80007.27376	2363.32065
0.49743	79936.46226	2362.32065
0.49630	79865.73791	2361.32065
0.49517	79795.10040	2360.32065
0.49405	79724.54941	2359.32065
0.49293	79654.08465	2358.32065
0.49181	79583.70581	2357.32065
0.49069	79513.41260	2356.32065
0.48958	79443.20470	2355.32065
0.48847	79373.08182	2354.32065
0.48736	79303.04367	2353.32065
0.48625	79233.08993	2352.32065
0.48514	79163.22033	2351.32065
0.48404	79093.43455	2350.32065
0.48293	79023.73232	2349.32065
0.48183	78954.11332	2348.32065
0.48074	78884.57728	2347.32065
0.47964	78815.12391	2346.32065
0.47855	78745.75290	2345.32065
0.47745	78676.46397	2344.32065
0.47636	78607.25684	2343.32065
0.47528	78538.13122	2342.32065
0.47419	78469.08682	2341.32065
0.47311	78400.12336	2340.32065
0.47202	78331.24054	2339.32065
0.47094	78262.43810	2338.32065
0.46987	78193.71575	2337.32065
0.46879	78125.07320	2336.32065
0.46771	78056.51019	2335.32065
0.46664	77988.02642	2334.32065
0.46557	77919.62162	2333.32065
0.46450	77851.29552	2332.32065
0.46344	77783.04783	2331.32065
0.46237	77714.87828	2330.32065
0.46131	77646.78661	2329.32065
0.46025	77578.77252	2328.32065
0.45919	77510.83576	2327.32065
0.45813	77442.97606	2326.32065
0.45708	77375.19313	2325.32065
0.45603	77307.48671	2324.32065
0.45497	77239.85653	2323.32065
0.45392	77172.30233	2322.32065
0.45288	77104.82384	2321.32065
0.45183	77037.42078	2320.32065
0.45079	76970.09290	2319.32065
0.44974	76902.83994	2318.32065
0.44870	76835.66161	2317.32065
0.44766	76768.55768	2316.32065
0.44663	76701.52786	2315.32065
0.44559	76634.57190	2314.32065
0.44456	76567.68955	2313.32065
0.44353	76500.88053	2312.32065
0.44250	76434.14460	2311.32065
0.44147	76367.48149	2310.32065
0.44044	76300.89095	2309.32065
0.43942	76234.37271	2308.32065
0.43839	76167.92653	2307.32065
0.43737	76101.55215	2306.32065
0.43635	76035.24931	2305.32065
0.43533	75969.01776	2304.32065
0.43432	75902.85725	2303.32065
0.43330	75836.76753	2302.32065
0.43229	75770.74834	2301.32065
0.43128	75704.79943	2300.32065
0.43027	75638.92056	2299.32065
0.42926	75573.11146	2298.32065
0.42825	75507.37191	2297.32065
0.42725	75441.70164	2296.32065
0.42624	75376.10040	2295.32065
0.42524	75310.56797	2294.32065
0.42424	75245.10407	2293.32065
0.42324	75179.70848	2292.32065
0.42224	75114.38094	2291.32065
0.42125	75049.12121	2290.32065
0.42025	74983.92906	2289.32065
0.41926	74918.80422	2288.32065
0.41827	74853.74647	2287.32065
0.41728	74788.75555	2286.32065
0.41629	74723.83124	2285.32065
0.41530	74658.97328	2284.32065
0.41432	74594.18144	2283.32065
0.41333	74529.45547	2282.32065
0.41235	74464.79514	2281.32065
0.41137	74400.20022	2280.32065
0.41039	74335.67045	2279.32065
0.40941	74271.20560	2278.32065
0.40843	74206.80544	2277.32065
0.40746	74142.46973	2276.32065
0.40648	74078.19824	2275.32065
0.40551	74013.99072	2274.32065
0.40454	73949.84694	2273.32065
0.40357	73885.76666	2272.32065
0.40260	73821.74966	2271.32065
0.40163	73757.79570	2270.32065
0.40067	73693.90454	2269.32065
0.39970	73630.07595	2268.32065
0.39874	73566.30970	2267.32065
0.39778	73502.60555	2266.32065
0.39682	73438.96328	2265.32065
0.39586	73375.38265	2264.32065
0.39490	73311.86342	2263.32065
0.39394	73248.40538	2262.32065
0.39299	73185.00829	2261.32065
0.39203	73121.67191	2260.32065
0.39108	73058.39602	2259.32065
0.39013	72995.18039	2258.32065
0.38918	72932.02478	2257.32065
0.38823	72868.92898	2256.32065
0.38728	72805.89274	2255.32065
0.38633	72742.91584	2254.32065
0.38539	72679.99806	2253.32065
0.38444	72617.13916	2252.32065
0.38350	72554.33892	2251.32065
0.38256	72491.59710	2250.32065
0.38161	72428.91349	2249.32065
0.38067	72366.28785	2248.32065
0.37974	72303.71995	2247.32065
0.37880	72241.20957	2246.32065
0.37786	72178.75648	2245.32065
0.37693	72116.36046	2244.32065
0.37599	72054.02127	2243.32065
0.37506	71991.73869	2242.32065
0.37413	71929.51250	2241.32065
0.37319	71867.34247	2240.32065
0.37226	71805.22836	2239.32065
0.37133	71743.16996	2238.32065
0.37041	71681.16704	2237.32065
0.36948	71619.21937	2236.32065
0.36855	71557.32672	2235.32065
0.36763	71495.48888	2234.32065
0.36670	71433.70560	2233.32065
0.36578	71371.97667	2232.32065
0.36486	71310.30186	2231.32065
0.36394	71248.68095	2230.32065
0.36302	71187.11369	2229.32065
0.36210	71125.59988	2228.32065
0.36118	71064.13928	2227.32065
0.36026	71002.73166	2226.32065
0.35935	70941.37681	2225.32065
0.35843	70880.07448	2224.32065
0.35752	70818.82445	2223.32065
0.35660	70757.62650	2222.32065
0.35569	70696.48040	2221.32065
0.35478	70635.38592	2220.32065
0.35386	70574.34282	2219.32065
0.35295	70513.35089	2218.32065
0.35204	70452.40989	2217.32065
0.35114	70391.51959	2216.32065
0.35023	70330.67976	2215.32065
0.34932	70269.89018	2214.32065
0.34841	70209.15061	2213.32065
0.34751	70148.46082	2212.32065
0.34660	70087.82058	2211.32065
0.34570	70027.22966	2210.32065
0.34479	69966.68782	2209.32065
0.34389	69906.19484	2208.32065
0.34299	69845.75048	2207.32065
0.34209	69785.35451	2206.32065
0.34119	69725.00668	2205.32065
0.34029	69664.70678	2204.32065
0.33939	69604.45456	2203.32065
0.33849	69544.24978	2202.32065
0.33759	69484.09221	2201.32065
0.33669	69423.98161	2200.32065
0.33580	69363.91774	2199.32065
0.33490	69303.90037	2198.32065
0.33400	69243.92926	2197.32065
0.33311	69184.00415	2196.32065
0.33221	69124.12482	2195.32065
0.33132	69064.29102	2194.32065
0.33043	69004.50251	2193.32065
0.32953	68944.75904	2192.32065
0.32864	68885.06038	2191.32065
0.32775	68825.40626	2190.32065
0.32686	68765.79645	2189.32065
0.32597	68706.23070	2188.32065
0.32508	68646.70876	2187.32065
0.32419	68587.23037	2186.32065
0.32330	68527.79530	2185.32065
0.32241	68468.40328	2184.32065
0.32152	68409.05407	2183.32065
0.32063	68349.74740	2182.32065
0.31974	68290.48302	2181.32065
0.31885	68231.26068	2180.32065
0.31797	68172.08011	2179.32065
0.31708	68112.94106	2178.32065
0.31619	68053.84326	2177.32065
0.31531	67994.78645	2176.32065
0.31442	67935.77036	2175.32065
0.31353	67876.79474	2174.32065
0.31265	67817.85931	2173.32065
0.31176	67758.96379	2172.32065
0.31088	67700.10793	2171.32065
0.30999	67641.29145	2170.32065
0.30911	67582.51407	2169.32065
0.30822	67523.77552	2168.32065
0.30734	67465.07551	2167.32065
0.30645	67406.41377	2166.32065
0.30557	67347.79001	2165.32065
0.30468	67289.20396	2164.32065
0.30380	67230.65531	2163.32065
0.30292	67172.14379	2162.32065
0.30203	67113.66910	2161.32065
0.30115	67055.23095	2160.32065
0.30027	66996.82904	2159.32065
0.29938	66938.46307	2158.32065
0.29850	66880.13275	2157.32065
0.29761	66821.83776	2156.32065
0.29673	66763.57780	2155.32065
0.29585	66705.35257	2154.32065
0.29496	66647.16175	2153.32065
0.29408	66589.00502	2152.32065
0.29319	66530.88207	2151.32065
0.29231	66472.79258	2150.32065
0.29142	66414.73622	2149.32065
0.29054	66356.71266	2148.32065
0.28965	66298.72158	2147.32065
0.28877	66240.76264	2146.32065
0.28788	66182.83550	2145.32065
0.28700	66124.93983	2144.32065
0.28611	66067.07527	2143.32065
0.28523	66009.24147	2142.32065
0.28434	65951.43809	2141.32065
0.28345	65893.66477	2140.32065
0.28256	65835.92115	2139.32065
0.28168	65778.20686	2138.32065
0.28079	65720.52153	2137.32065
0.27990	65662.86479	2136.32065
0.27901	65605.23626	2135.32065
0.27812	65547.63555	2134.32065
0.27723	65490.06228	2133.32065
0.27634	65432.51606	2132.32065
0.27545	65374.99648	2131.32065
0.27456	65317.50315	2130.32065
0.27367	65260.03565	2129.32065
0.27277	65202.59357	2128.32065
0.27188	65145.19302	2127.32065
0.27098	65087.79910	2126.32065
0.27009	65030.42806	2125.32065
0.26919	64973.07944	2124.32065
0.26830	64915.75276	2123.32065
0.26740	64858.44754	2122.32065
0.26650	64801.16328	2121.32065
0.26560	64743.89949	2120.32065
0.26470	64686.65567	2119.32065
0.26380	64629.43129	2118.32065
0.26290	64572.22585	2117.32065
0.26199	64515.03880	2116.32065
0.26109	64457.86962	2115.32065
0.26018	64400.71775	2114.32065
0.25928	64343.58265	2113.32065
0.25837	64286.46374	2112.32065
0.25746	64229.36045	2111.32065
0.25655	64172.27219	2110.32065
0.25564	64115.19838	2109.32065
0.25473	64058.13841	2108.32065
0.25381	64001.09166	2107.32065
0.25290	63944.05750	2106.32065
0.25198	63887.03529	2105.32065
0.25106	63830.02439	2104.32065
0.25015	63773.02414	2103.32065
0.24922	63716.03385	2102.32065
0.24830	63659.05284	2101.32065
0.24738	63602.08040	2100.32065
0.24645	63545.11583	2099.32065
0.24552	63488.15839	2098.32065
0.24459	63431.20733	2097.32065
0.24366	63374.26190	2096.32065
0.24273	63317.32131	2095.32065
0.24179	63260.38478	2094.32065
0.24086	63203.45150	2093.32065
0.23992	63146.52064	2092.32065
0.23898	63089.59135	2091.32065
0.23803	63032.66277	2090.32065
0.23709	62975.73401	2089.32065
0.23614	62918.80418	2088.32065
0.23519	62861.87234	2087.32065
0.23424	62804.93755	2086.32065
0.23328	62747.99884	2085.32065
0.23233	62691.05522	2084.32065
0.23137	62634.10567	2083.32065
0.23040	62577.14916	2082.32065
0.22944	62520.18460	2081.32065
0.22847	62463.21092	2080.32065
0.22750	62406.22697	2079.32065
0.22652	62349.23163	2078.32065
0.22555	62292.22370	2077.32065
0.22457	62235.20196	2076.32065
0.22358	62178.16518	2075.32065
0.22260	62121.11207	2074.32065
0.22161	62064.04132	2073.32065
0.22061	62006.95158	2072.32065
0.21962	61949.84145	2071.32065
0.21862	61892.70950	2070.32065
0.21761	61835.55427	2069.32065
0.21661	61778.37423	2068.32065
0.21559	61721.16782	2067.32065
0.21458	61663.93344	2066.32065
0.21356	61606.66943	2065.32065
0.21253	61549.37408	2064.32065
0.21151	61492.04561	2063.32065
0.21047	61434.68223	2062.32065
0.20944	61377.28203	2061.32065
0.20839	61319.84309	2060.32065
0.20735	61262.36340	2059.32065
0.20629	61204.84087	2058.32065
0.20524	61147.27338	2057.32065
0.20417	61089.65869	2056.32065
0.20311	61031.99451	2055.32065
0.20203	60974.27846	2054.32065
0.20095	60916.50807	2053.32065
0.19987	60858.68078	2052.32065
0.19878	60800.79394	2051.32065
0.19768	60742.84480	2050.32065
0.19657	60684.83049	2049.32065
0.19546	60626.74803	2048.32065
0.19434	60568.59434	2047.32065
0.19322	60510.36621	2046.32065
0.19209	60452.06027	2045.32065
0.19095	60393.67304	2044.32065
0.18980	60335.20090	2043.32065
0.18864	60276.64003	2042.32065
0.18748	60217.98649	2041.32065
0.18631	60159.23613	2040.32065
0.18513	60100.38464	2039.32065
0.18393	60041.42749	2038.32065
0.18273	59982.35995	2037.32065
0.18152	59923.17705	2036.32065
0.18030	59863.87360	2035.32065
0.17907	59804.44414	2034.32065
0.17783	59744.88292	2033.32065
0.17658	59685.18393	2032.32065
0.17531	59625.34083	2031.32065
0.17404	59565.34691	2030.32065
0.17275	59505.19515	2029.32065
0.17144	59444.87811	2028.32065
0.17013	59384.38792	2027.32065
0.16880	59323.71628	2026.32065
0.16745	59262.85437	2025.32065
0.16609	59201.79287	2024.32065
0.16471	59140.52187	2023.32065
0.16332	59079.03082	2022.32065
0.16191	59017.30852	2021.32065
0.16048	58955.34301	2020.32065
